*Energy (MeV/u)1	0 - [He-base] F.Hubert et al, AD&ND Tables 46(1990)1	Energy (MeV/u)2	1 - [H -base] J.F.Ziegler et al, Pergamon Press, NY (low energy)	Energy (MeV/u)3	2 - ATIMA 1.2  LS-theory (recommended for high energy)	Energy (MeV/u)4	3 - ATIMA 1.2  without LS-correction	Energy (MeV/u)5	4 - electrical component of [1] - J.F.Ziegler et al	Energy (MeV/u)6	5 - nuclear component of [1] - J.F.Ziegler et al	
0.001000	0.144784  	0.001000	0.0265242 	0.001000	0.0274851 	0.001000	0.0274851 	0.001000	0.0252182 	0.001000	0.001306  	
0.002000	0.175998  	0.002000	0.0357851 	0.002000	0.0370978 	0.002000	0.0370978 	0.002000	0.0344491 	0.002000	0.00133605	
0.005000	0.233861  	0.005000	0.0532397 	0.005000	0.0552222 	0.005000	0.0552222 	0.005000	0.0520296 	0.005000	0.00121007	
0.008000	0.272861  	0.008000	0.0653628 	0.008000	0.0678122 	0.008000	0.0678122 	0.008000	0.0642842 	0.008000	0.00107852	
0.010000	0.293957  	0.010000	0.0720799 	0.010000	0.0747881 	0.010000	0.0747881 	0.010000	0.0710745 	0.010000	0.00100541	
0.015000	0.354906  	0.015000	0.0851806 	0.015000	0.0894149 	0.015000	0.0894149 	0.015000	0.0843172 	0.015000	0.000863416	
0.020000	0.404773  	0.020000	0.0959055 	0.020000	0.101551  	0.020000	0.101551  	0.020000	0.0951445 	0.020000	0.000761008	
0.025000	0.44599   	0.025000	0.104931  	0.025000	0.11212   	0.025000	0.11212   	0.025000	0.104248  	0.025000	0.000683398	
0.030000	0.479843  	0.030000	0.112625  	0.030000	0.118585  	0.030000	0.118585  	0.030000	0.112003  	0.030000	0.000622263	
0.035000	0.507173  	0.035000	0.119221  	0.035000	0.124077  	0.035000	0.124077  	0.035000	0.118648  	0.035000	0.000572659	
0.040000	0.528641  	0.040000	0.124885  	0.040000	0.128763  	0.040000	0.128763  	0.040000	0.124353  	0.040000	0.000531468	
0.045000	0.544838  	0.045000	0.129742  	0.045000	0.132765  	0.045000	0.132765  	0.045000	0.129245  	0.045000	0.000496621	
0.050000	0.556334  	0.050000	0.133893  	0.050000	0.136176  	0.050000	0.136176  	0.050000	0.133427  	0.050000	0.000466693	
0.055000	0.563688  	0.055000	0.137423  	0.055000	0.139073  	0.055000	0.139073  	0.055000	0.136982  	0.055000	0.000440662	
0.060000	0.56745   	0.060000	0.140401  	0.060000	0.141518  	0.060000	0.141518  	0.060000	0.139983  	0.060000	0.000417778	
0.070000	0.566297  	0.070000	0.144944  	0.070000	0.145254  	0.070000	0.145254  	0.070000	0.144564  	0.070000	0.000379322	
0.080000	0.556737  	0.080000	0.147934  	0.080000	0.147725  	0.080000	0.147725  	0.080000	0.147586  	0.080000	0.00034817	
0.090000	0.541948  	0.090000	0.149698  	0.090000	0.149191  	0.090000	0.149191  	0.090000	0.149376  	0.090000	0.00032234	
0.100000	0.524338  	0.100000	0.150499  	0.100000	0.149859  	0.100000	0.149859  	0.100000	0.150198  	0.100000	0.000300523	
0.120000	0.486852  	0.120000	0.150013  	0.120000	0.149422  	0.120000	0.149422  	0.120000	0.149747  	0.120000	0.000265567	
0.140000	0.451694  	0.140000	0.147719  	0.140000	0.14739   	0.140000	0.14739   	0.140000	0.14748   	0.140000	0.000238675	
0.160000	0.421171  	0.160000	0.144414  	0.160000	0.1444    	0.160000	0.1444    	0.160000	0.144199  	0.160000	0.000215204	
0.180000	0.395382  	0.180000	0.140606  	0.180000	0.140882  	0.180000	0.140882  	0.180000	0.140408  	0.180000	0.000197913	
0.200000	0.373682  	0.200000	0.136603  	0.200000	0.13711   	0.200000	0.13711   	0.200000	0.136419  	0.200000	0.000183452	
0.250000	0.332473  	0.250000	0.12678   	0.250000	0.127589  	0.250000	0.127589  	0.250000	0.126625  	0.250000	0.000155793	
0.300000	0.303088  	0.300000	0.117989  	0.300000	0.118813  	0.300000	0.118813  	0.300000	0.117853  	0.300000	0.000135976	
0.350000	0.280525  	0.350000	0.1104    	0.350000	0.111107  	0.350000	0.111107  	0.350000	0.110279  	0.350000	0.000121007	
0.400000	0.262228  	0.400000	0.103884  	0.400000	0.104435  	0.400000	0.104435  	0.400000	0.103775  	0.400000	0.000109259	
0.450000	0.246829  	0.450000	0.098257  	0.450000	0.0986589 	0.450000	0.0986589 	0.450000	0.0981573 	0.450000	9.97674e-05	
0.500000	0.233538  	0.500000	0.0933532 	0.500000	0.0936298 	0.500000	0.0936298 	0.500000	0.0932613 	0.500000	9.19227e-05	
0.600000	0.211474  	0.600000	0.0852068 	0.600000	0.085312  	0.600000	0.085312  	0.600000	0.0851271 	0.600000	7.96768e-05	
0.700000	0.19369   	0.700000	0.0786818 	0.700000	0.0786987 	0.700000	0.0786987 	0.700000	0.0786113 	0.700000	7.05225e-05	
0.800000	0.17894   	0.800000	0.0733073 	0.800000	0.0732876 	0.800000	0.0732876 	0.800000	0.0732439 	0.800000	6.3396e-05	
0.900000	0.166459  	0.900000	0.0687823 	0.900000	0.0687553 	0.900000	0.0687553 	0.900000	0.0687246 	0.900000	5.76762e-05	
1.000000	0.155737  	1.000000	0.0649056 	1.000000	0.0648868 	1.000000	0.0648868 	1.000000	0.0648527 	1.000000	5.29746e-05	
1.250000	0.134484  	1.250000	0.0572253 	1.250000	0.0572506 	1.250000	0.0572506 	1.250000	0.0571811 	1.250000	4.41859e-05	
1.500000	0.118652  	1.500000	0.0514772 	1.500000	0.0515479 	1.500000	0.0515479 	1.500000	0.0514391 	1.500000	3.80514e-05	
1.750000	0.106361  	1.750000	0.046979  	1.750000	0.0470854 	1.750000	0.0470854 	1.750000	0.0469455 	1.750000	3.35067e-05	
2.000000	0.0965219 	2.000000	0.0433434 	2.000000	0.0434756 	2.000000	0.0434756 	2.000000	0.0433134 	2.000000	2.99939e-05	
2.250000	0.0884534 	2.250000	0.040332  	2.250000	0.0404819 	2.250000	0.0404819 	2.250000	0.0403048 	2.250000	2.71909e-05	
2.500000	0.0813576 	2.500000	0.0377888 	2.500000	0.0379506 	2.500000	0.0379506 	2.500000	0.0377639 	2.500000	2.48982e-05	
3.000000	0.0710397 	3.000000	0.0337109 	3.000000	0.0338844 	3.000000	0.0338844 	3.000000	0.0336895 	3.000000	2.13634e-05	
3.500000	0.063209  	3.500000	0.0305673 	3.500000	0.0307431 	3.500000	0.0307431 	3.500000	0.0305485 	3.500000	1.87571e-05	
4.000000	0.0570459 	4.000000	0.0280567 	4.000000	0.0282299 	4.000000	0.0282299 	4.000000	0.02804   	4.000000	1.67503e-05	
4.500000	0.0520586 	4.500000	0.0259973 	4.500000	0.0261653 	4.500000	0.0261653 	4.500000	0.0259821 	4.500000	1.51539e-05	
5.000000	0.0479334 	5.000000	0.024272  	5.000000	0.0244337 	5.000000	0.0244337 	5.000000	0.0242581 	5.000000	1.38518e-05	
5.500000	0.0444602 	5.500000	0.0228018 	5.500000	0.0229567 	5.500000	0.0229567 	5.500000	0.0227891 	5.500000	1.27678e-05	
6.000000	0.0414927 	6.000000	0.0215315 	6.000000	0.0216793 	6.000000	0.0216793 	6.000000	0.0215197 	6.000000	1.18506e-05	
6.500000	0.0389259 	6.500000	0.0204209 	6.500000	0.0205619 	6.500000	0.0205619 	6.500000	0.0204098 	6.500000	1.10636e-05	
7.000000	0.036682  	7.000000	0.0194402 	7.000000	0.0195745 	7.000000	0.0195745 	7.000000	0.0194298 	7.000000	1.03805e-05	
7.500000	0.0347026 	7.500000	0.0185667 	7.500000	0.0186947 	7.500000	0.0186947 	7.500000	0.0185569 	7.500000	9.7815e-06	
8.000000	0.0329426 	8.000000	0.0177829 	8.000000	0.0179049 	8.000000	0.0179049 	8.000000	0.0177737 	8.000000	9.25178e-06	
8.500000	0.0313667 	8.500000	0.017075  	8.500000	0.0171912 	8.500000	0.0171912 	8.500000	0.0170662 	8.500000	8.77972e-06	
9.000000	0.0299469 	9.000000	0.0164318 	9.000000	0.0165426 	9.000000	0.0165426 	9.000000	0.0164234 	9.000000	8.35622e-06	
9.500000	0.0286607 	9.500000	0.0158444 	9.500000	0.0159502 	9.500000	0.0159502 	9.500000	0.0158364 	9.500000	7.974e-06 	
10.000000	0.0274896 	10.000000	0.0154481 	10.000000	0.0154066 	10.000000	0.0154066 	10.000000	0.0154404 	10.000000	7.6272e-06	
11.000000	0.0254352 	11.000000	0.0146037 	11.000000	0.0144799 	11.000000	0.0144801 	11.000000	0.0145967 	11.000000	7.02148e-06	
12.000000	0.0236905 	12.000000	0.0138419 	12.000000	0.0136772 	12.000000	0.0136776 	12.000000	0.0138354 	12.000000	6.50972e-06	
13.000000	0.0221892 	13.000000	0.0131543 	13.000000	0.0129738 	13.000000	0.0129741 	13.000000	0.0131482 	13.000000	6.07127e-06	
14.000000	0.0208828 	14.000000	0.0125324 	14.000000	0.0123511 	14.000000	0.0123511 	14.000000	0.0125267 	14.000000	5.69117e-06	
15.000000	0.0197351 	15.000000	0.0119682 	15.000000	0.0117946 	15.000000	0.0117947 	15.000000	0.0119629 	15.000000	5.3583e-06	
16.000000	0.0187183 	16.000000	0.0114548 	16.000000	0.0112942 	16.000000	0.011294  	16.000000	0.0114497 	16.000000	5.06422e-06	
17.000000	0.0178108 	17.000000	0.010986  	17.000000	0.0108414 	17.000000	0.0108406 	17.000000	0.0109812 	17.000000	4.8024e-06	
18.000000	0.0169955 	18.000000	0.0105564 	18.000000	0.0104286 	18.000000	0.0104275 	18.000000	0.0105518 	18.000000	4.56773e-06	
19.000000	0.016259  	19.000000	0.0101615 	19.000000	0.0100503 	19.000000	0.0100492 	19.000000	0.0101572 	19.000000	4.35612e-06	
20.000000	0.01559   	20.000000	0.0097974 	20.000000	0.00970196	20.000000	0.00970083	20.000000	0.00979323	20.000000	4.16426e-06	
21.000000	0.0149795 	21.000000	0.00946064	21.000000	0.00938056	21.000000	0.00937936	21.000000	0.00945665	21.000000	3.98947e-06	
22.000000	0.01442   	22.000000	0.00914831	22.000000	0.0090824 	22.000000	0.00908125	22.000000	0.00914448	22.000000	3.82952e-06	
23.000000	0.0139054 	23.000000	0.00885788	23.000000	0.00880502	23.000000	0.00880384	23.000000	0.0088542 	23.000000	3.68258e-06	
24.000000	0.0134302 	24.000000	0.00858714	24.000000	0.00854652	24.000000	0.00854487	24.000000	0.00858359	24.000000	3.54708e-06	
25.000000	0.01299   	25.000000	0.00833416	25.000000	0.00830482	25.000000	0.00830243	25.000000	0.00833073	25.000000	3.42172e-06	
27.000000	0.0122002 	27.000000	0.00787491	27.000000	0.00786372	27.000000	0.0078607 	27.000000	0.00787172	27.000000	3.1971e-06	
29.000000	0.0115112 	29.000000	0.00746893	29.000000	0.0074708 	29.000000	0.00746785	29.000000	0.00746593	29.000000	3.00154e-06	
31.000000	0.0109046 	31.000000	0.00710743	31.000000	0.00711565	31.000000	0.00711265	31.000000	0.0071046 	31.000000	2.82966e-06	
33.000000	0.0103662 	33.000000	0.00678345	33.000000	0.00679423	33.000000	0.00679141	33.000000	0.00678077	33.000000	2.67733e-06	
35.000000	0.00988496	35.000000	0.00649139	35.000000	0.00650478	35.000000	0.00650227	35.000000	0.00648885	35.000000	2.54135e-06	
38.000000	0.00925136	38.000000	0.00610349	38.000000	0.00612203	38.000000	0.00611865	38.000000	0.00610112	38.000000	2.36262e-06	
41.000000	0.00870407	41.000000	0.00576539	41.000000	0.00578795	41.000000	0.00578446	41.000000	0.00576319	41.000000	2.20849e-06	
44.000000	0.00822626	44.000000	0.00546802	44.000000	0.00549366	44.000000	0.00549048	44.000000	0.00546594	44.000000	2.07415e-06	
47.000000	0.00780527	47.000000	0.00520435	47.000000	0.00523271	47.000000	0.00522969	47.000000	0.0052024 	47.000000	1.95596e-06	
50.000000	0.00743135	50.000000	0.00496893	50.000000	0.00499947	50.000000	0.00499663	50.000000	0.00496707	50.000000	1.85112e-06	
55.000000	0.00689274	55.000000	0.00462787	55.000000	0.00466117	55.000000	0.00465856	55.000000	0.00462617	55.000000	1.70037e-06	
60.000000	0.00643798	60.000000	0.00433823	60.000000	0.00437348	60.000000	0.00437089	60.000000	0.00433666	60.000000	1.57335e-06	
65.000000	0.00604856	65.000000	0.0040891 	65.000000	0.00412599	65.000000	0.00412294	65.000000	0.00408764	65.000000	1.46478e-06	
70.000000	0.00571107	70.000000	0.00387245	70.000000	0.00390964	70.000000	0.00390686	70.000000	0.00387108	70.000000	1.37087e-06	
75.000000	0.00541559	75.000000	0.00368226	75.000000	0.0037194 	75.000000	0.00371678	75.000000	0.00368097	75.000000	1.28878e-06	
80.000000	0.00515456	80.000000	0.00351392	80.000000	0.00355067	80.000000	0.00354819	80.000000	0.0035127 	80.000000	1.2164e-06	
85.000000	0.00492218	85.000000	0.00336382	85.000000	0.00339994	85.000000	0.0033976 	85.000000	0.00336267	85.000000	1.15206e-06	
90.000000	0.00471387	90.000000	0.00322913	90.000000	0.00326447	90.000000	0.00326222	90.000000	0.00322803	90.000000	1.09448e-06	
95.000000	0.004526  	95.000000	0.00310757	95.000000	0.0031425 	95.000000	0.00313983	95.000000	0.00310653	95.000000	1.04264e-06	
100.000000	0.00435563	100.000000	0.00299729	100.000000	0.00303117	100.000000	0.00302862	100.000000	0.00299629	100.000000	9.95694e-07	
105.000000	0.00420037	105.000000	0.00289678	105.000000	0.00292955	105.000000	0.0029271 	105.000000	0.00289583	105.000000	9.52981e-07	
110.000000	0.00405825	110.000000	0.00280478	110.000000	0.00283642	110.000000	0.00283406	110.000000	0.00280387	110.000000	9.13943e-07	
115.000000	0.00392763	115.000000	0.00272025	115.000000	0.00275072	115.000000	0.00274846	115.000000	0.00271937	115.000000	8.78117e-07	
120.000000	0.00380714	120.000000	0.00264231	120.000000	0.00267161	120.000000	0.00266943	120.000000	0.00264146	120.000000	8.45118e-07	
125.000000	0.0036956 	125.000000	0.0025702 	125.000000	0.00259836	125.000000	0.00259624	125.000000	0.00256939	125.000000	8.14617e-07	
130.000000	0.00359204	130.000000	0.0025033 	130.000000	0.00253031	130.000000	0.00252826	130.000000	0.00250251	130.000000	7.86338e-07	
135.000000	0.00349561	135.000000	0.00244105	135.000000	0.00246689	135.000000	0.00246494	135.000000	0.00244029	135.000000	7.60043e-07	
140.000000	0.00340557	140.000000	0.00238299	140.000000	0.00240792	140.000000	0.00240583	140.000000	0.00238225	140.000000	7.35527e-07	
145.000000	0.0033213 	145.000000	0.0023287 	145.000000	0.00235279	145.000000	0.00235052	145.000000	0.00232798	145.000000	7.12613e-07	
150.000000	0.00324225	150.000000	0.00227782	150.000000	0.00230084	150.000000	0.00229864	150.000000	0.00227713	150.000000	6.91146e-07	
155.000000	0.00313093	155.000000	0.00223004	155.000000	0.00225201	155.000000	0.00224989	155.000000	0.00222937	155.000000	6.70991e-07	
160.000000	0.00306569	160.000000	0.00218509	160.000000	0.00220608	160.000000	0.00220399	160.000000	0.00218444	160.000000	6.5203e-07	
165.000000	0.00300416	165.000000	0.00214272	165.000000	0.00216274	165.000000	0.00216071	165.000000	0.00214209	165.000000	6.34159e-07	
170.000000	0.00294604	170.000000	0.00210272	170.000000	0.00212179	170.000000	0.00211981	170.000000	0.0021021 	170.000000	6.17284e-07	
175.000000	0.00289105	175.000000	0.00206488	175.000000	0.00208306	175.000000	0.00208112	175.000000	0.00206428	175.000000	6.01323e-07	
180.000000	0.00283893	180.000000	0.00202904	180.000000	0.00204634	180.000000	0.00204445	180.000000	0.00202845	180.000000	5.86203e-07	
185.000000	0.00278947	185.000000	0.00199505	185.000000	0.00201151	185.000000	0.00200965	185.000000	0.00199447	185.000000	5.71858e-07	
190.000000	0.00274246	190.000000	0.00196276	190.000000	0.00197842	190.000000	0.00197659	190.000000	0.0019622 	190.000000	5.5823e-07	
195.000000	0.00269772	195.000000	0.00193205	195.000000	0.00194691	195.000000	0.00194514	195.000000	0.0019315 	195.000000	5.45264e-07	
200.000000	0.0026551 	200.000000	0.0019028 	200.000000	0.0019169 	200.000000	0.00191518	200.000000	0.00190227	200.000000	5.32913e-07	
210.000000	0.0025756 	210.000000	0.00184832	210.000000	0.00186127	210.000000	0.00185934	210.000000	0.00184781	210.000000	5.09887e-07	
220.000000	0.00250295	220.000000	0.00179859	220.000000	0.00181027	220.000000	0.00180835	220.000000	0.0017981 	220.000000	4.8885e-07	
230.000000	0.00243628	230.000000	0.00175302	230.000000	0.00176346	230.000000	0.00176162	230.000000	0.00175255	230.000000	4.69551e-07	
240.000000	0.00237489	240.000000	0.0017111 	240.000000	0.00172043	240.000000	0.00171864	240.000000	0.00171065	240.000000	4.51781e-07	
250.000000	0.00231816	250.000000	0.00167243	250.000000	0.00168072	250.000000	0.00167898	250.000000	0.001672  	250.000000	4.35361e-07	
260.000000	0.00226558	260.000000	0.00163664	260.000000	0.00164397	260.000000	0.00164227	260.000000	0.00163622	260.000000	4.20143e-07	
270.000000	0.00221672	270.000000	0.00160342	270.000000	0.00160987	270.000000	0.00160822	270.000000	0.00160302	270.000000	4.05996e-07	
280.000000	0.00217118	280.000000	0.00157252	280.000000	0.00157815	280.000000	0.00157654	280.000000	0.00157212	280.000000	3.92811e-07	
290.000000	0.00212865	290.000000	0.00154369	290.000000	0.00154855	290.000000	0.001547  	290.000000	0.00154331	290.000000	3.8049e-07	
300.000000	0.00208884	300.000000	0.00151674	300.000000	0.00152102	300.000000	0.00151939	300.000000	0.00151637	300.000000	3.6895e-07	
310.000000	0.00205149	310.000000	0.00149149	310.000000	0.00149528	310.000000	0.00149355	310.000000	0.00149113	310.000000	3.58119e-07	
320.000000	0.00201639	320.000000	0.0014678 	320.000000	0.001471  	320.000000	0.0014693 	320.000000	0.00146745	320.000000	3.47931e-07	
330.000000	0.00198334	330.000000	0.00144552	330.000000	0.00144817	330.000000	0.00144652	330.000000	0.00144518	330.000000	3.38332e-07	
340.000000	0.00195217	340.000000	0.00142454	340.000000	0.00142669	340.000000	0.00142507	340.000000	0.00142421	340.000000	3.29269e-07	
350.000000	0.00192272	350.000000	0.00140474	350.000000	0.00140645	350.000000	0.00140485	350.000000	0.00140442	350.000000	3.20699e-07	
360.000000	0.00189486	360.000000	0.00138603	360.000000	0.00138733	360.000000	0.00138576	360.000000	0.00138572	360.000000	3.12583e-07	
370.000000	0.00186846	370.000000	0.00136834	370.000000	0.00136925	370.000000	0.00136771	370.000000	0.00136803	370.000000	3.04884e-07	
380.000000	0.00184342	380.000000	0.00135157	380.000000	0.00135214	380.000000	0.00135062	380.000000	0.00135127	380.000000	2.97571e-07	
390.000000	0.00181963	390.000000	0.00133567	390.000000	0.00133592	390.000000	0.00133442	390.000000	0.00133538	390.000000	2.90615e-07	
400.000000	0.00179701	400.000000	0.00132056	400.000000	0.00132052	400.000000	0.00131905	400.000000	0.00132028	400.000000	2.8399e-07	
410.000000	0.00177548	410.000000	0.0013062 	410.000000	0.0013059 	410.000000	0.00130445	410.000000	0.00130592	410.000000	2.77672e-07	
420.000000	0.00175495	420.000000	0.00129253	420.000000	0.001292  	420.000000	0.00129056	420.000000	0.00129225	420.000000	2.71642e-07	
430.000000	0.00173538	430.000000	0.0012795 	430.000000	0.00127876	430.000000	0.00127734	430.000000	0.00127923	430.000000	2.65878e-07	
440.000000	0.00171668	440.000000	0.00126707	440.000000	0.00126612	440.000000	0.00126474	440.000000	0.00126681	440.000000	2.60364e-07	
450.000000	0.00169881	450.000000	0.00125521	450.000000	0.00125409	450.000000	0.00125272	450.000000	0.00125496	450.000000	2.55083e-07	
460.000000	0.00168172	460.000000	0.00124388	460.000000	0.00124266	460.000000	0.00124125	460.000000	0.00124363	460.000000	2.50022e-07	
470.000000	0.00166535	470.000000	0.00123304	470.000000	0.00123177	470.000000	0.00123029	470.000000	0.0012328 	470.000000	2.45165e-07	
480.000000	0.00164967	480.000000	0.00122267	480.000000	0.00122133	480.000000	0.00121982	480.000000	0.00122243	480.000000	2.40501e-07	
490.000000	0.00163464	490.000000	0.00121274	490.000000	0.00121129	490.000000	0.00120979	490.000000	0.0012125 	490.000000	2.36019e-07	
500.000000	0.00162021	500.000000	0.00120322	500.000000	0.00120166	500.000000	0.00120019	500.000000	0.00120298	500.000000	2.31707e-07	
520.000000	0.00159305	520.000000	0.00118532	520.000000	0.00118361	520.000000	0.00118217	520.000000	0.0011851 	520.000000	2.23558e-07	
540.000000	0.00156795	540.000000	0.00116881	540.000000	0.001167  	540.000000	0.00116558	540.000000	0.0011686 	540.000000	2.15986e-07	
560.000000	0.0015447 	560.000000	0.00115355	560.000000	0.00115167	560.000000	0.00115028	560.000000	0.00115334	560.000000	2.08929e-07	
580.000000	0.00152311	580.000000	0.00113941	580.000000	0.00113749	580.000000	0.00113612	580.000000	0.00113921	580.000000	2.02337e-07	
600.000000	0.00150304	600.000000	0.00112628	600.000000	0.00112435	600.000000	0.00112301	600.000000	0.00112609	600.000000	1.96164e-07	
620.000000	0.00148433	620.000000	0.00111407	620.000000	0.00111215	620.000000	0.00111083	620.000000	0.00111388	620.000000	1.90371e-07	
640.000000	0.00146687	640.000000	0.0011027 	640.000000	0.00110081	640.000000	0.0010995 	640.000000	0.00110251	640.000000	1.84924e-07	
660.000000	0.00145056	660.000000	0.00109208	660.000000	0.00109024	660.000000	0.00108895	660.000000	0.0010919 	660.000000	1.79792e-07	
680.000000	0.00143528	680.000000	0.00108216	680.000000	0.00108036	680.000000	0.00107911	680.000000	0.00108199	680.000000	1.74948e-07	
700.000000	0.00142097	700.000000	0.00107288	700.000000	0.00107118	700.000000	0.00106991	700.000000	0.00107271	700.000000	1.70369e-07	
720.000000	0.00140755	720.000000	0.00106418	720.000000	0.00106263	720.000000	0.0010613 	720.000000	0.00106401	720.000000	1.66032e-07	
