*Energy (MeV/u)1	0 - [He-base] F.Hubert et al, AD&ND Tables 46(1990)1	Energy (MeV/u)2	1 - [H -base] J.F.Ziegler et al, Pergamon Press, NY (low energy)	Energy (MeV/u)3	2 - ATIMA 1.2  LS-theory (recommended for high energy)	Energy (MeV/u)4	3 - ATIMA 1.2  without LS-correction	Energy (MeV/u)5	4 - electrical component of [1] - J.F.Ziegler et al	Energy (MeV/u)6	5 - nuclear component of [1] - J.F.Ziegler et al	
0.001000	0.0164864 	0.001000	0.0244773 	0.001000	0.0318662 	0.001000	0.0318662 	0.001000	0.0203098 	0.001000	0.0041675 	
0.002000	0.0196417 	0.002000	0.0286649 	0.002000	0.0357182 	0.002000	0.0357182 	0.002000	0.025886  	0.002000	0.00277886	
0.005000	0.0257955 	0.005000	0.0371732 	0.005000	0.0429188 	0.005000	0.0429188 	0.005000	0.0356734 	0.005000	0.00149975	
0.008000	0.0300151 	0.008000	0.043119  	0.008000	0.0476503 	0.008000	0.0476503 	0.008000	0.042052  	0.008000	0.00106706	
0.010000	0.0323158 	0.010000	0.0463668 	0.010000	0.0501547 	0.010000	0.0501547 	0.010000	0.0454679 	0.010000	0.000898882	
0.015000	0.0389764 	0.015000	0.0534593 	0.015000	0.0551698 	0.015000	0.0551698 	0.015000	0.0528    	0.015000	0.000659305	
0.020000	0.0444337 	0.020000	0.059202  	0.020000	0.0591018 	0.020000	0.0591018 	0.020000	0.0586756 	0.020000	0.000526433	
0.025000	0.0489471 	0.025000	0.0639997 	0.025000	0.0623768 	0.025000	0.0623768 	0.025000	0.0635587 	0.025000	0.000440976	
0.030000	0.0526553 	0.030000	0.0680643 	0.030000	0.0655349 	0.030000	0.0655349 	0.030000	0.0676833 	0.030000	0.000380981	
0.035000	0.0556494 	0.035000	0.071524  	0.035000	0.0681747 	0.035000	0.0681747 	0.035000	0.0711876 	0.035000	0.000336339	
0.040000	0.0580015 	0.040000	0.0744645 	0.040000	0.0703833 	0.040000	0.0703833 	0.040000	0.0741628 	0.040000	0.000301713	
0.045000	0.059776  	0.045000	0.0769481 	0.045000	0.0722243 	0.045000	0.0722243 	0.045000	0.0766741 	0.045000	0.000274004	
0.050000	0.0610353 	0.050000	0.0790234 	0.050000	0.0737466 	0.050000	0.0737466 	0.050000	0.0787721 	0.050000	0.000251285	
0.055000	0.0618406 	0.055000	0.0807303 	0.055000	0.0749896 	0.055000	0.0749896 	0.055000	0.080498  	0.055000	0.00023229	
0.060000	0.0622521 	0.060000	0.0821034 	0.060000	0.0759861 	0.060000	0.0759861 	0.060000	0.0818873 	0.060000	0.000216154	
0.070000	0.0621239 	0.070000	0.0839699 	0.070000	0.0773478 	0.070000	0.0773478 	0.070000	0.0837797 	0.070000	0.000190167	
0.080000	0.061074  	0.080000	0.0848433 	0.080000	0.0780152 	0.080000	0.0780152 	0.080000	0.0846732 	0.080000	0.000170105	
0.090000	0.0594508 	0.090000	0.0849168 	0.090000	0.0781327 	0.090000	0.0781327 	0.090000	0.0847626 	0.090000	0.000154111	
0.100000	0.0575185 	0.100000	0.084361  	0.100000	0.0778169 	0.100000	0.0778169 	0.100000	0.08422   	0.100000	0.000141041	
0.120000	0.0534057 	0.120000	0.0819336 	0.120000	0.076249  	0.120000	0.076249  	0.120000	0.0818127 	0.120000	0.000120909	
0.140000	0.0495485 	0.140000	0.0784866 	0.140000	0.0738845 	0.140000	0.0738845 	0.140000	0.0783805 	0.140000	0.000106083	
0.160000	0.0462    	0.160000	0.07463   	0.160000	0.0711045 	0.160000	0.0711045 	0.160000	0.0745353 	0.160000	9.46763e-05	
0.180000	0.0433709 	0.180000	0.0707291 	0.180000	0.0681568 	0.180000	0.0681568 	0.180000	0.0706435 	0.180000	8.56104e-05	
0.200000	0.0409904 	0.200000	0.0669828 	0.200000	0.0651982 	0.200000	0.0651982 	0.200000	0.0669046 	0.200000	7.82196e-05	
0.250000	0.0364696 	0.250000	0.0587752 	0.250000	0.0582761 	0.250000	0.0582761 	0.250000	0.0587107 	0.250000	6.45586e-05	
0.300000	0.0332462 	0.300000	0.0522826 	0.300000	0.0523812 	0.300000	0.0523812 	0.300000	0.0522275 	0.300000	5.51489e-05	
0.350000	0.0307711 	0.350000	0.047186  	0.350000	0.047516  	0.350000	0.047516  	0.350000	0.0471378 	0.350000	4.82489e-05	
0.400000	0.0287639 	0.400000	0.0431298 	0.400000	0.0435179 	0.400000	0.0435179 	0.400000	0.0430868 	0.400000	4.29594e-05	
0.450000	0.0270747 	0.450000	0.0398372 	0.450000	0.0402091 	0.450000	0.0402091 	0.450000	0.0397984 	0.450000	3.87676e-05	
0.500000	0.0256167 	0.500000	0.0371101 	0.500000	0.0374391 	0.500000	0.0374391 	0.500000	0.0370747 	0.500000	3.5359e-05	
0.600000	0.0231964 	0.600000	0.0328359 	0.600000	0.0330727 	0.600000	0.0330727 	0.600000	0.0328058 	0.600000	3.01409e-05	
0.700000	0.0212456 	0.700000	0.029609  	0.700000	0.0297794 	0.700000	0.0297794 	0.700000	0.0295827 	0.700000	2.63243e-05	
0.800000	0.0196276 	0.800000	0.0270603 	0.800000	0.0271918 	0.800000	0.0271918 	0.800000	0.0270369 	0.800000	2.34045e-05	
0.900000	0.0182586 	0.900000	0.0249795 	0.900000	0.0250919 	0.900000	0.0250919 	0.900000	0.0249584 	0.900000	2.10948e-05	
1.000000	0.0170824 	1.000000	0.0232381 	1.000000	0.0233443 	1.000000	0.0233443 	1.000000	0.0232189 	1.000000	1.92193e-05	
1.250000	0.0147513 	1.250000	0.0198858 	1.250000	0.0200038 	1.250000	0.0200038 	1.250000	0.01987   	1.250000	1.5772e-05	
1.500000	0.0130146 	1.500000	0.0174525 	1.500000	0.0175949 	1.500000	0.0175949 	1.500000	0.0174391 	1.500000	1.34134e-05	
1.750000	0.0116665 	1.750000	0.0155908 	1.750000	0.0157573 	1.750000	0.0157573 	1.750000	0.0155791 	1.750000	1.16929e-05	
2.000000	0.0105872 	2.000000	0.0141134 	2.000000	0.0143005 	2.000000	0.0143005 	2.000000	0.014103  	2.000000	1.03796e-05	
2.250000	0.00970219	2.250000	0.0129089 	2.250000	0.0131124 	2.250000	0.0131124 	2.250000	0.0128995 	2.250000	9.3426e-06	
2.500000	0.00892357	2.500000	0.0119059 	2.500000	0.0121224 	2.500000	0.0121224 	2.500000	0.0118974 	2.500000	8.50196e-06	
3.000000	0.00779187	3.000000	0.0103272 	3.000000	0.0105611 	3.000000	0.0105611 	3.000000	0.01032   	3.000000	7.21998e-06	
3.500000	0.00693297	3.500000	0.00913728	3.500000	0.00938085	3.500000	0.00938085	3.500000	0.009131  	3.500000	6.2864e-06	
4.000000	0.00625698	4.000000	0.00820585	4.000000	0.0084541 	4.000000	0.0084541 	4.000000	0.00820028	4.000000	5.57476e-06	
4.500000	0.00570996	4.500000	0.0074555 	4.500000	0.00770528	4.500000	0.00770528	4.500000	0.00745049	4.500000	5.01349e-06	
5.000000	0.00525749	5.000000	0.00683722	5.000000	0.00708649	5.000000	0.00708649	5.000000	0.00683266	5.000000	4.55895e-06	
5.500000	0.00487654	5.500000	0.00631837	5.500000	0.00656583	5.500000	0.00656583	5.500000	0.00631418	5.500000	4.183e-06 	
6.000000	0.00455106	6.000000	0.00587635	6.000000	0.00612115	6.000000	0.00612115	6.000000	0.00587248	6.000000	3.86663e-06	
6.500000	0.00426952	6.500000	0.00549498	6.500000	0.00573659	6.500000	0.00573659	6.500000	0.00549139	6.500000	3.59655e-06	
7.000000	0.0040234 	7.000000	0.00516238	7.000000	0.00540047	7.000000	0.00540047	7.000000	0.00515902	7.000000	3.36318e-06	
7.500000	0.00380629	7.500000	0.0048696 	7.500000	0.00510397	7.500000	0.00510397	7.500000	0.00486644	7.500000	3.1594e-06	
8.000000	0.00361325	8.000000	0.00460977	8.000000	0.00484034	8.000000	0.00484034	8.000000	0.00460679	8.000000	2.97986e-06	
8.500000	0.0034404 	8.500000	0.00437753	8.500000	0.00460426	8.500000	0.00460426	8.500000	0.00437471	8.500000	2.82042e-06	
9.000000	0.00328467	9.000000	0.00416864	9.000000	0.00439154	9.000000	0.00439154	9.000000	0.00416596	9.000000	2.67784e-06	
9.500000	0.0031436 	9.500000	0.00397968	9.500000	0.00419881	9.500000	0.00419881	9.500000	0.00397713	9.500000	2.54954e-06	
10.000000	0.00301515	10.000000	0.00394226	10.000000	0.00402331	10.000000	0.00402331	10.000000	0.00393983	10.000000	2.43346e-06	
11.000000	0.00278982	11.000000	0.00365309	11.000000	0.00371165	11.000000	0.00371168	11.000000	0.00365085	11.000000	2.23148e-06	
12.000000	0.00259845	12.000000	0.0034062 	12.000000	0.00344748	12.000000	0.00344754	12.000000	0.00340414	12.000000	2.06164e-06	
13.000000	0.00243379	13.000000	0.00319286	13.000000	0.00322074	13.000000	0.00322077	13.000000	0.00319095	13.000000	1.91673e-06	
14.000000	0.0022905 	14.000000	0.00300658	14.000000	0.00302396	14.000000	0.00302396	14.000000	0.00300479	14.000000	1.79158e-06	
15.000000	0.00216461	15.000000	0.00284245	15.000000	0.00285153	15.000000	0.00285153	15.000000	0.00284077	15.000000	1.68236e-06	
16.000000	0.00205308	16.000000	0.0026967 	16.000000	0.00269927	16.000000	0.00269924	16.000000	0.00269511	16.000000	1.58617e-06	
17.000000	0.00195354	17.000000	0.00256635	17.000000	0.00256388	17.000000	0.00256376	17.000000	0.00256485	17.000000	1.50079e-06	
18.000000	0.00186413	18.000000	0.00244906	18.000000	0.00244266	18.000000	0.0024425 	18.000000	0.00244764	18.000000	1.42447e-06	
19.000000	0.00178334	19.000000	0.00234293	19.000000	0.00233351	19.000000	0.00233334	19.000000	0.00234158	19.000000	1.35582e-06	
20.000000	0.00170996	20.000000	0.00224642	20.000000	0.00223477	20.000000	0.0022346 	20.000000	0.00224513	20.000000	1.29372e-06	
21.000000	0.001643  	21.000000	0.00215826	21.000000	0.00214505	21.000000	0.00214488	21.000000	0.00215703	21.000000	1.23728e-06	
22.000000	0.00158164	22.000000	0.0020774 	22.000000	0.00206319	22.000000	0.00206302	22.000000	0.00207621	22.000000	1.18574e-06	
23.000000	0.00152519	23.000000	0.00200295	23.000000	0.00198824	23.000000	0.00198807	23.000000	0.00200181	23.000000	1.13848e-06	
24.000000	0.00147307	24.000000	0.00193417	24.000000	0.00191946	24.000000	0.00191921	24.000000	0.00193307	24.000000	1.09498e-06	
25.000000	0.00142479	25.000000	0.00187042	25.000000	0.00185612	25.000000	0.00185576	25.000000	0.00186936	25.000000	1.05481e-06	
27.000000	0.00133816	27.000000	0.00175594	27.000000	0.00174328	27.000000	0.00174283	27.000000	0.00175495	27.000000	9.83005e-07	
29.000000	0.00126259	29.000000	0.00165601	29.000000	0.00164593	29.000000	0.00164549	29.000000	0.00165509	29.000000	9.20686e-07	
31.000000	0.00119606	31.000000	0.00156799	31.000000	0.00155991	31.000000	0.00155946	31.000000	0.00156712	31.000000	8.66066e-07	
33.000000	0.001137  	33.000000	0.00148984	33.000000	0.00148242	33.000000	0.001482  	33.000000	0.00148902	33.000000	8.17786e-07	
35.000000	0.00108422	35.000000	0.00141997	35.000000	0.0014131 	35.000000	0.00141273	35.000000	0.00141919	35.000000	7.7479e-07	
38.000000	0.00101472	38.000000	0.00132798	38.000000	0.00132201	38.000000	0.00132151	38.000000	0.00132726	38.000000	7.1843e-07	
41.000000	0.000954691	41.000000	0.00124854	41.000000	0.00124321	41.000000	0.00124269	41.000000	0.00124787	41.000000	6.69979e-07	
44.000000	0.000902284	44.000000	0.00117921	44.000000	0.00117435	44.000000	0.00117387	44.000000	0.00117858	44.000000	6.27864e-07	
47.000000	0.000856108	47.000000	0.00111815	47.000000	0.00111369	47.000000	0.00111324	47.000000	0.00111756	47.000000	5.90905e-07	
50.000000	0.000815095	50.000000	0.00106395	50.000000	0.00105981	50.000000	0.00105938	50.000000	0.00106339	50.000000	5.582e-07 	
55.000000	0.000756018	55.000000	0.000985946	55.000000	0.000982225	55.000000	0.000981836	55.000000	0.000985434	55.000000	5.11304e-07	
60.000000	0.000706139	60.000000	0.000920176	60.000000	0.00091678	60.000000	0.000916396	60.000000	0.000919704	60.000000	4.71917e-07	
65.000000	0.000663426	65.000000	0.000863939	65.000000	0.000860853	65.000000	0.000860399	65.000000	0.0008635 	65.000000	4.38352e-07	
70.000000	0.000626409	70.000000	0.00081528	70.000000	0.000812328	70.000000	0.000811915	70.000000	0.000814871	70.000000	4.09393e-07	
75.000000	0.000594  	75.000000	0.000772749	75.000000	0.0007699 	75.000000	0.000769509	75.000000	0.000772365	75.000000	3.84144e-07	
80.000000	0.00056537	80.000000	0.000735245	80.000000	0.000732463	80.000000	0.000732094	80.000000	0.000734883	80.000000	3.61927e-07	
85.000000	0.000539881	85.000000	0.000701918	85.000000	0.000699177	85.000000	0.000698829	85.000000	0.000701575	85.000000	3.42221e-07	
90.000000	0.000517033	90.000000	0.000672098	90.000000	0.000669386	90.000000	0.000669051	90.000000	0.000671774	90.000000	3.2462e-07	
95.000000	0.000496427	95.000000	0.000645256	95.000000	0.000642633	95.000000	0.000642236	95.000000	0.000644947	95.000000	3.08799e-07	
100.000000	0.00047774	100.000000	0.000620962	100.000000	0.000618336	100.000000	0.000617957	100.000000	0.000620667	100.000000	2.94499e-07	
105.000000	0.000460711	105.000000	0.000598866	105.000000	0.000596231	105.000000	0.000595868	105.000000	0.000598584	105.000000	2.81507e-07	
110.000000	0.000445123	110.000000	0.00057868	110.000000	0.000576032	110.000000	0.000575683	110.000000	0.00057841	110.000000	2.69651e-07	
115.000000	0.000430796	115.000000	0.000560165	115.000000	0.000557501	115.000000	0.000557164	115.000000	0.000559906	115.000000	2.58786e-07	
120.000000	0.000417579	120.000000	0.000543119	120.000000	0.000540437	120.000000	0.000540112	120.000000	0.000542871	120.000000	2.48791e-07	
125.000000	0.000405346	125.000000	0.000527374	125.000000	0.000524673	125.000000	0.000524358	125.000000	0.000527135	125.000000	2.39565e-07	
130.000000	0.000393987	130.000000	0.000512785	130.000000	0.000510064	130.000000	0.000509759	130.000000	0.000512554	130.000000	2.31021e-07	
135.000000	0.00038341	135.000000	0.000499227	135.000000	0.00049648	135.000000	0.000496191	135.000000	0.000499004	135.000000	2.23086e-07	
140.000000	0.000373535	140.000000	0.000486595	140.000000	0.000483858	140.000000	0.000483549	140.000000	0.00048638	140.000000	2.15695e-07	
145.000000	0.000364292	145.000000	0.000474797	145.000000	0.000472077	145.000000	0.00047174	145.000000	0.000474588	145.000000	2.08795e-07	
150.000000	0.00035562	150.000000	0.000463751	150.000000	0.000461012	150.000000	0.000460685	150.000000	0.000463549	150.000000	2.02337e-07	
155.000000	0.000343411	155.000000	0.000453388	155.000000	0.000450628	155.000000	0.000450313	155.000000	0.000453192	155.000000	1.9628e-07	
160.000000	0.000336255	160.000000	0.000443647	160.000000	0.000440872	160.000000	0.000440563	160.000000	0.000443456	160.000000	1.90587e-07	
165.000000	0.000329506	165.000000	0.000434472	165.000000	0.000431682	165.000000	0.00043138	165.000000	0.000434286	165.000000	1.85226e-07	
170.000000	0.000323132	170.000000	0.000425815	170.000000	0.000423012	170.000000	0.000422717	170.000000	0.000425635	170.000000	1.80169e-07	
175.000000	0.0003171 	175.000000	0.000417634	175.000000	0.000414819	175.000000	0.000414531	175.000000	0.000417458	175.000000	1.75389e-07	
180.000000	0.000311383	180.000000	0.00040989	180.000000	0.000407065	180.000000	0.000406783	180.000000	0.000409719	180.000000	1.70865e-07	
185.000000	0.000305958	185.000000	0.000402549	185.000000	0.000399716	185.000000	0.00039944	185.000000	0.000402382	185.000000	1.66576e-07	
190.000000	0.000300802	190.000000	0.000395581	190.000000	0.000392741	190.000000	0.000392469	190.000000	0.000395418	190.000000	1.62504e-07	
195.000000	0.000295895	195.000000	0.000388957	195.000000	0.000386108	195.000000	0.000385845	195.000000	0.000388798	195.000000	1.58633e-07	
200.000000	0.00029122	200.000000	0.000382653	200.000000	0.000379798	200.000000	0.000379541	200.000000	0.000382498	200.000000	1.54949e-07	
210.000000	0.000282501	210.000000	0.000370916	210.000000	0.000368095	210.000000	0.000367808	210.000000	0.000370768	210.000000	1.48086e-07	
220.000000	0.000274532	220.000000	0.000360213	220.000000	0.000357398	220.000000	0.000357113	220.000000	0.000360071	220.000000	1.41825e-07	
230.000000	0.00026722	230.000000	0.000350413	230.000000	0.000347598	230.000000	0.000347324	230.000000	0.000350276	230.000000	1.36088e-07	
240.000000	0.000260485	240.000000	0.000341406	240.000000	0.000338599	240.000000	0.000338333	240.000000	0.000341276	240.000000	1.30811e-07	
250.000000	0.000254263	250.000000	0.000333102	250.000000	0.000330305	250.000000	0.000330046	250.000000	0.000332976	250.000000	1.25942e-07	
260.000000	0.000248497	260.000000	0.000325421	260.000000	0.000322638	260.000000	0.000322386	260.000000	0.0003253 	260.000000	1.21433e-07	
270.000000	0.000243137	270.000000	0.000318296	270.000000	0.00031553	270.000000	0.000315284	270.000000	0.000318179	270.000000	1.17246e-07	
280.000000	0.000238143	280.000000	0.00031167	280.000000	0.000308923	280.000000	0.000308683	280.000000	0.000311557	280.000000	1.13347e-07	
290.000000	0.000233478	290.000000	0.000305493	290.000000	0.000302763	290.000000	0.000302533	290.000000	0.000305383	290.000000	1.09707e-07	
300.000000	0.000229111	300.000000	0.00029972	300.000000	0.000297031	300.000000	0.000296789	300.000000	0.000299614	300.000000	1.06302e-07	
310.000000	0.000225015	310.000000	0.000294315	310.000000	0.000291672	310.000000	0.000291414	310.000000	0.000294212	310.000000	1.03107e-07	
320.000000	0.000221164	320.000000	0.000289244	320.000000	0.000286626	320.000000	0.000286374	320.000000	0.000289144	320.000000	1.00106e-07	
330.000000	0.000217539	330.000000	0.000284477	330.000000	0.000281884	330.000000	0.000281639	330.000000	0.000284379	330.000000	9.72794e-08	
340.000000	0.00021412	340.000000	0.000279988	340.000000	0.000277425	340.000000	0.000277183	340.000000	0.000279893	340.000000	9.46133e-08	
350.000000	0.00021089	350.000000	0.000275755	350.000000	0.000273221	350.000000	0.000272983	350.000000	0.000275662	350.000000	9.2094e-08	
360.000000	0.000207834	360.000000	0.000271756	360.000000	0.000269252	360.000000	0.000269019	360.000000	0.000271666	360.000000	8.97097e-08	
370.000000	0.000204939	370.000000	0.000267973	370.000000	0.000265477	370.000000	0.000265247	370.000000	0.000267885	370.000000	8.74496e-08	
380.000000	0.000202192	380.000000	0.00026439	380.000000	0.000261902	380.000000	0.000261676	380.000000	0.000264304	380.000000	8.53042e-08	
390.000000	0.000199583	390.000000	0.000260991	390.000000	0.000258513	390.000000	0.000258291	390.000000	0.000260908	390.000000	8.32649e-08	
400.000000	0.000197102	400.000000	0.000257764	400.000000	0.000255297	400.000000	0.000255078	400.000000	0.000257683	400.000000	8.13239e-08	
410.000000	0.00019474	410.000000	0.000254696	410.000000	0.000252241	410.000000	0.000252025	410.000000	0.000254616	410.000000	7.94742e-08	
420.000000	0.000192489	420.000000	0.000251776	420.000000	0.000249335	420.000000	0.000249121	420.000000	0.000251698	420.000000	7.77094e-08	
430.000000	0.000190342	430.000000	0.000248994	430.000000	0.000246567	430.000000	0.000246356	430.000000	0.000248918	430.000000	7.60238e-08	
440.000000	0.000188291	440.000000	0.000246341	440.000000	0.000243926	440.000000	0.00024372	440.000000	0.000246266	440.000000	7.4412e-08	
450.000000	0.000186331	450.000000	0.000243808	450.000000	0.000241409	450.000000	0.000241206	450.000000	0.000243735	450.000000	7.28694e-08	
460.000000	0.000184456	460.000000	0.000241388	460.000000	0.000239013	460.000000	0.000238804	460.000000	0.000241317	460.000000	7.13914e-08	
470.000000	0.000182661	470.000000	0.000239074	470.000000	0.000236728	470.000000	0.000236509	470.000000	0.000239004	470.000000	6.99741e-08	
480.000000	0.000180941	480.000000	0.00023686	480.000000	0.000234538	480.000000	0.000234313	480.000000	0.000236791	480.000000	6.86137e-08	
490.000000	0.000179292	490.000000	0.000234739	490.000000	0.000232434	490.000000	0.000232211	490.000000	0.000234672	490.000000	6.73069e-08	
500.000000	0.00017771	500.000000	0.000232707	500.000000	0.000230416	500.000000	0.000230197	500.000000	0.000232641	500.000000	6.60505e-08	
520.000000	0.000174731	520.000000	0.000228886	520.000000	0.000226628	520.000000	0.000226414	520.000000	0.000228822	520.000000	6.36777e-08	
540.000000	0.000171978	540.000000	0.000225362	540.000000	0.000223137	540.000000	0.000222927	540.000000	0.0002253 	540.000000	6.14745e-08	
560.000000	0.000169428	560.000000	0.000222103	560.000000	0.000219911	560.000000	0.000219705	560.000000	0.000222044	560.000000	5.94233e-08	
580.000000	0.00016706	580.000000	0.000219084	580.000000	0.000216924	580.000000	0.000216721	580.000000	0.000219026	580.000000	5.75086e-08	
600.000000	0.000164858	600.000000	0.00021628	600.000000	0.00021415	600.000000	0.000213951	600.000000	0.000216224	600.000000	5.57172e-08	
620.000000	0.000162806	620.000000	0.000213672	620.000000	0.000211571	620.000000	0.000211374	620.000000	0.000213618	620.000000	5.40373e-08	
640.000000	0.000160891	640.000000	0.000211241	640.000000	0.000209168	640.000000	0.000208974	640.000000	0.000211188	640.000000	5.24589e-08	
660.000000	0.000159102	660.000000	0.000208972	660.000000	0.000206924	660.000000	0.000206733	660.000000	0.000208921	660.000000	5.09728e-08	
680.000000	0.000157427	680.000000	0.000206851	680.000000	0.000204824	680.000000	0.000204637	680.000000	0.000206801	680.000000	4.95711e-08	
