*Energy (MeV/u)1	0 - [He-base] F.Hubert et al, AD&ND Tables 46(1990)1	Energy (MeV/u)2	1 - [H -base] J.F.Ziegler et al, Pergamon Press, NY (low energy)	Energy (MeV/u)3	2 - ATIMA 1.2  LS-theory (recommended for high energy)	Energy (MeV/u)4	3 - ATIMA 1.2  without LS-correction	Energy (MeV/u)5	4 - Range straggling - method [0] - LISE	Energy (MeV/u)6	5 - Range straggling - method [1] - Atima	Energy (MeV/u)7	6 - Lateral range - method [0] - LISE	Energy (MeV/u)8	7 - Lateral range - method [1] - Atima	Energy (MeV/u)9	8 - Lateral range - method [2] - PDG	
0.001000	0.0675604 	0.001000	0.0675604 	0.001000	0.0770272 	0.001000	0.0770272 	0.001000	0         	0.001000	0         	0.001000	0.000332185	0.001000	0.000508415	0.001000	0.000290517	
0.002000	0.143465  	0.002000	0.135121  	0.002000	0.154054  	0.002000	0.154054  	0.002000	0.0149451 	0.002000	0.0149451 	0.002000	0.000972936	0.002000	0.00143876	0.002000	0.000873524	
0.005000	0.312032  	0.005000	0.285156  	0.005000	0.323798  	0.005000	0.323798  	0.005000	0.0169307 	0.005000	0.0169307 	0.005000	0.00290245	0.005000	0.00419156	0.005000	0.00264869	
0.008000	0.44346   	0.008000	0.402136  	0.008000	0.454861  	0.008000	0.454861  	0.008000	0.0169831 	0.008000	0.0169831 	0.008000	0.00475496	0.008000	0.0067802 	0.008000	0.00437457	
0.010000	0.520065  	0.010000	0.47032   	0.010000	0.530761  	0.010000	0.530761  	0.010000	0.0171499 	0.010000	0.0171499 	0.010000	0.00596698	0.010000	0.00845893	0.010000	0.00550944	
0.015000	0.687642  	0.015000	0.619475  	0.015000	0.695634  	0.015000	0.695634  	0.015000	0.0179271 	0.015000	0.0179271 	0.015000	0.00894942	0.015000	0.0125595 	0.015000	0.0083135 	
0.020000	0.832562  	0.020000	0.748464  	0.020000	0.837048  	0.020000	0.837048  	0.020000	0.018904  	0.020000	0.018904  	0.020000	0.0118775 	0.020000	0.0164679 	0.020000	0.0110774 	
0.025000	0.962219  	0.025000	0.863867  	0.025000	0.962783  	0.025000	0.962783  	0.025000	0.0198891 	0.025000	0.0198891 	0.025000	0.0147727 	0.025000	0.0200519 	0.025000	0.0138176 	
0.030000	1.08026   	0.030000	0.968936  	0.030000	1.07136   	0.030000	1.07136   	0.030000	0.0206894 	0.030000	0.0206894 	0.030000	0.0175055 	0.030000	0.0232365 	0.030000	0.0164037 	
0.035000	1.18866   	0.035000	1.06542   	0.035000	1.16614   	0.035000	1.16614   	0.035000	0.0213197 	0.035000	0.0213197 	0.035000	0.0200825 	0.035000	0.0260793 	0.035000	0.0188415 	
0.040000	1.28898   	0.040000	1.1547    	0.040000	1.25337   	0.040000	1.25337   	0.040000	0.0218798 	0.040000	0.0218798 	0.040000	0.0226182 	0.040000	0.02873   	0.040000	0.0212433 	
0.045000	1.38277   	0.045000	1.23818   	0.045000	1.33553   	0.045000	1.33553   	0.045000	0.0223997 	0.045000	0.0223997 	0.045000	0.02516   	0.045000	0.031258  	0.045000	0.0236546 	
0.050000	1.47124   	0.050000	1.31693   	0.050000	1.41376   	0.050000	1.41376   	0.050000	0.0228887 	0.050000	0.022791  	0.050000	0.0277188 	0.050000	0.0336905 	0.050000	0.0260855 	
0.055000	1.55534   	0.055000	1.39178   	0.055000	1.4887    	0.055000	1.4887    	0.055000	0.0233506 	0.055000	0.0231031 	0.055000	0.0302618 	0.055000	0.036051  	0.055000	0.0285461 	
0.060000	1.63589   	0.060000	1.46348   	0.060000	1.56081   	0.060000	1.56081   	0.060000	0.0237881 	0.060000	0.0233968 	0.060000	0.0325704 	0.060000	0.0383499 	0.060000	0.0310381 	
0.070000	1.78874   	0.070000	1.59952   	0.070000	1.69794   	0.070000	1.69794   	0.070000	0.0246002 	0.070000	0.0239393 	0.070000	0.037123  	0.070000	0.0428081 	0.070000	0.0358864 	
0.080000	1.93301   	0.080000	1.72794   	0.080000	1.82749   	0.080000	1.82749   	0.080000	0.0253445 	0.080000	0.0244354 	0.080000	0.0415727 	0.080000	0.0471315 	0.080000	0.040338  	
0.090000	2.07084   	0.090000	1.85061   	0.090000	1.95119   	0.090000	1.95119   	0.090000	0.0260373 	0.090000	0.0248978 	0.090000	0.0458808 	0.090000	0.0513318 	0.090000	0.0446757 	
0.100000	2.20374   	0.100000	1.96891   	0.100000	2.07034   	0.100000	2.07034   	0.100000	0.0266916 	0.100000	0.0253359 	0.100000	0.0500027 	0.100000	0.0553802 	0.100000	0.0488346 	
0.120000	2.459     	0.120000	2.1961    	0.120000	2.29875   	0.120000	2.29875   	0.120000	0.027922  	0.120000	0.026165  	0.120000	0.0573517 	0.120000	0.0626489 	0.120000	0.0562557 	
0.140000	2.70493   	0.140000	2.415     	0.140000	2.51828   	0.140000	2.51828   	0.140000	0.0290908 	0.140000	0.0269599 	0.140000	0.0634489 	0.140000	0.068749  	0.140000	0.0624095 	
0.160000	2.94531   	0.160000	2.62895   	0.160000	2.73238   	0.160000	2.73238   	0.160000	0.030231  	0.160000	0.0277427 	0.160000	0.0688127 	0.160000	0.0741826 	0.160000	0.0678044 	
0.180000	3.18111   	0.180000	2.83883   	0.180000	2.94327   	0.180000	2.94327   	0.180000	0.0313629 	0.180000	0.0285267 	0.180000	0.0736412 	0.180000	0.0791486 	0.180000	0.0726496 	
0.200000	3.41289   	0.200000	3.04513   	0.200000	3.15243   	0.200000	3.15243   	0.200000	0.032499  	0.200000	0.0293201 	0.200000	0.0780442 	0.200000	0.0837328 	0.200000	0.0770615 	
0.250000	3.9831    	0.250000	3.55266   	0.250000	3.67338   	0.250000	3.67338   	0.250000	0.0354005 	0.250000	0.031372  	0.250000	0.0886021 	0.250000	0.0948327 	0.250000	0.0876389 	
0.300000	4.54765   	0.300000	4.05514   	0.300000	4.19732   	0.300000	4.19732   	0.300000	0.0384219 	0.300000	0.0335394 	0.300000	0.0984694 	0.300000	0.105287  	0.300000	0.0975048 	
0.350000	5.10738   	0.350000	4.55334   	0.350000	4.72674   	0.350000	4.72674   	0.350000	0.0415534 	0.350000	0.0358094 	0.350000	0.107548  	0.350000	0.114993  	0.350000	0.106578  	
0.400000	5.66515   	0.400000	5.04979   	0.400000	5.25943   	0.400000	5.25943   	0.400000	0.0447238 	0.400000	0.0381245 	0.400000	0.116373  	0.400000	0.124418  	0.400000	0.1154    	
0.450000	6.21887   	0.450000	5.54264   	0.450000	5.79699   	0.450000	5.79699   	0.450000	0.0479419 	0.450000	0.0404856 	0.450000	0.124788  	0.450000	0.133409  	0.450000	0.123809  	
0.500000	6.77215   	0.500000	6.0351    	0.500000	6.34077   	0.500000	6.34077   	0.500000	0.0512182 	0.500000	0.0428962 	0.500000	0.132961  	0.500000	0.142131  	0.500000	0.131979  	
0.600000	7.88984   	0.600000	7.02992   	0.600000	7.45226   	0.600000	7.45226   	0.600000	0.0579994 	0.600000	0.0478932 	0.600000	0.148471  	0.600000	0.158703  	0.600000	0.147482  	
0.700000	9.03442   	0.700000	8.04867   	0.700000	8.59877   	0.700000	8.59877   	0.700000	0.0650957 	0.700000	0.053117  	0.700000	0.163205  	0.700000	0.174435  	0.700000	0.162216  	
0.800000	10.2185   	0.800000	9.10257   	0.800000	9.78137   	0.800000	9.78137   	0.800000	0.072491  	0.800000	0.0585425 	0.800000	0.177397  	0.800000	0.189588  	0.800000	0.176413  	
0.900000	11.4499   	0.900000	10.1987   	0.900000	11.0007   	0.900000	11.0007   	0.900000	0.080177  	0.900000	0.0641538 	0.900000	0.191077  	0.900000	0.204197  	0.900000	0.190107  	
1.000000	12.73     	1.000000	11.338    	1.000000	12.2574   	1.000000	12.2574   	1.000000	0.0881505 	1.000000	0.0699416 	1.000000	0.204468  	1.000000	0.218491  	1.000000	0.203518  	
1.250000	16.1605   	1.250000	14.3913   	1.250000	15.5725   	1.250000	15.5725   	1.250000	0.109485  	1.250000	0.0852517 	1.250000	0.236253  	1.250000	0.252512  	1.250000	0.235377  	
1.500000	19.9337   	1.500000	17.7497   	1.500000	19.1434   	1.500000	19.1434   	1.500000	0.1329    	1.500000	0.101773  	1.500000	0.266265  	1.500000	0.28475   	1.500000	0.265501  	
1.750000	24.0352   	1.750000	21.4004   	1.750000	22.9651   	1.750000	22.9651   	1.750000	0.158264  	1.750000	0.11938   	1.750000	0.295963  	1.750000	0.316627  	1.750000	0.295356  	
2.000000	28.4686   	2.000000	25.3464   	2.000000	27.0366   	2.000000	27.0366   	2.000000	0.185563  	2.000000	0.138047  	2.000000	0.325974  	2.000000	0.348745  	2.000000	0.325569  	
2.250000	33.2636   	2.250000	29.6143   	2.250000	31.3582   	2.250000	31.3582   	2.250000	0.214817  	2.250000	0.157774  	2.250000	0.356604  	2.250000	0.381408  	2.250000	0.356449  	
2.500000	38.388    	2.500000	34.1791   	2.500000	35.9303   	2.500000	35.9303   	2.500000	0.246048  	2.500000	0.178561  	2.500000	0.388056  	2.500000	0.414808  	2.500000	0.388197  	
3.000000	48.4989   	3.000000	44.1287   	3.000000	45.8243   	3.000000	45.8243   	3.000000	0.314483  	3.000000	0.223291  	3.000000	0.454003  	3.000000	0.484342  	3.000000	0.454879  	
3.500000	59.5607   	3.500000	55.1054   	3.500000	56.7118   	3.500000	56.7118   	3.500000	0.390867  	3.500000	0.27219   	3.500000	0.524697  	3.500000	0.558147  	3.500000	0.526498  	
4.000000	71.5595   	4.000000	67.0621   	4.000000	68.5811   	4.000000	68.5811   	4.000000	0.475111  	4.000000	0.325171  	4.000000	0.600673  	4.000000	0.636685  	4.000000	0.603582  	
4.500000	84.4803   	4.500000	79.9679   	4.500000	81.4167   	4.500000	81.4167   	4.500000	0.567051  	4.500000	0.382074  	4.500000	0.682247  	4.500000	0.72021   	4.500000	0.686454  	
5.000000	98.3083   	5.000000	93.7982   	5.000000	95.2014   	5.000000	95.2014   	5.000000	0.666496  	5.000000	0.442739  	5.000000	0.769557  	5.000000	0.808799  	5.000000	0.775231  	
5.500000	113.029   	5.500000	108.532   	5.500000	109.918   	5.500000	109.918   	5.500000	0.773246  	5.500000	0.507029  	5.500000	0.862643  	5.500000	0.902458  	5.500000	0.869944  	
6.000000	128.63    	6.000000	124.15    	6.000000	125.548   	6.000000	125.548   	6.000000	0.88711   	6.000000	0.574814  	6.000000	0.961438  	6.000000	1.00111   	6.000000	0.970523  	
6.500000	145.097   	6.500000	140.636   	6.500000	142.075   	6.500000	142.075   	6.500000	1.00791   	6.500000	0.645973  	6.500000	1.06592   	6.500000	1.10472   	6.500000	1.07694   	
7.000000	162.419   	7.000000	157.972   	7.000000	159.484   	7.000000	159.484   	7.000000	1.13547   	7.000000	0.720394  	7.000000	1.17596   	7.000000	1.21315   	7.000000	1.18906   	
7.500000	180.585   	7.500000	176.145   	7.500000	177.76    	7.500000	177.76    	7.500000	1.26965   	7.500000	0.797979  	7.500000	1.29147   	7.500000	1.32631   	7.500000	1.30679   	
8.000000	199.583   	8.000000	195.139   	8.000000	196.889   	8.000000	196.889   	8.000000	1.4103    	8.000000	0.878642  	8.000000	1.41233   	8.000000	1.44408   	8.000000	1.43002   	
8.500000	219.405   	8.500000	214.943   	8.500000	216.857   	8.500000	216.857   	8.500000	1.5573    	8.500000	0.962312  	8.500000	1.53846   	8.500000	1.56636   	8.500000	1.55863   	
9.000000	240.039   	9.000000	235.545   	9.000000	237.653   	9.000000	237.653   	9.000000	1.71054   	9.000000	1.04892   	9.000000	1.66975   	9.000000	1.69306   	9.000000	1.69255   	
9.500000	261.478   	9.500000	256.932   	9.500000	259.266   	9.500000	259.266   	9.500000	1.8699    	9.500000	1.13837   	9.500000	1.8061    	9.500000	1.82406   	9.500000	1.83167   	
10.000000	283.712   	10.000000	279.089   	10.000000	281.684   	10.000000	281.684   	10.000000	2.03529   	10.000000	1.23061   	10.000000	1.94742   	10.000000	1.95927   	10.000000	1.97587   	
11.000000	330.535   	11.000000	325.233   	11.000000	328.826   	11.000000	328.814   	11.000000	2.38229   	11.000000	1.42327   	11.000000	2.24396   	11.000000	2.24139   	11.000000	2.27856   	
12.000000	380.448   	12.000000	374.081   	12.000000	378.932   	12.000000	378.887   	12.000000	2.74963   	12.000000	1.62862   	12.000000	2.55806   	12.000000	2.53819   	12.000000	2.59928   	
13.000000	433.393   	13.000000	425.638   	13.000000	431.939   	13.000000	431.844   	13.000000	3.13705   	13.000000	1.84625   	13.000000	2.88887   	13.000000	2.84897   	13.000000	2.93732   	
14.000000	489.319   	14.000000	479.899   	14.000000	487.787   	14.000000	487.627   	14.000000	3.54427   	14.000000	2.07508   	14.000000	3.23001   	14.000000	3.17323   	14.000000	3.28653   	
15.000000	548.18    	15.000000	536.853   	15.000000	546.424   	15.000000	546.186   	15.000000	3.97099   	15.000000	2.31447   	15.000000	3.58797   	15.000000	3.51054   	15.000000	3.65266   	
16.000000	609.929   	16.000000	596.488   	16.000000	607.801   	16.000000	607.476   	16.000000	4.41691   	16.000000	2.5639    	16.000000	3.96213   	16.000000	3.86052   	16.000000	4.03544   	
17.000000	674.525   	17.000000	658.789   	17.000000	671.872   	17.000000	671.453   	17.000000	4.88173   	17.000000	2.82277   	17.000000	4.35204   	17.000000	4.21875   	17.000000	4.43441   	
18.000000	741.928   	18.000000	723.739   	18.000000	738.595   	18.000000	738.076   	18.000000	5.36513   	18.000000	3.09068   	18.000000	4.7573    	18.000000	4.58821   	18.000000	4.84918   	
19.000000	812.103   	19.000000	791.32    	19.000000	807.931   	19.000000	807.309   	19.000000	5.86688   	19.000000	3.36734   	19.000000	5.17755   	19.000000	4.97002   	19.000000	5.27941   	
20.000000	885.013   	20.000000	861.515   	20.000000	879.848   	20.000000	879.117   	20.000000	6.38675   	20.000000	3.65253   	20.000000	5.61251   	20.000000	5.36389   	20.000000	5.72483   	
21.000000	960.625   	21.000000	934.306   	21.000000	954.313   	21.000000	953.468   	21.000000	6.92455   	21.000000	3.94605   	21.000000	6.06195   	21.000000	5.76955   	21.000000	6.18518   	
22.000000	1038.91   	22.000000	1009.67   	22.000000	1031.3    	22.000000	1030.34   	22.000000	7.48013   	22.000000	4.24775   	22.000000	6.52565   	22.000000	6.18681   	22.000000	6.66027   	
23.000000	1119.83   	23.000000	1087.6    	23.000000	1110.77   	23.000000	1109.69   	23.000000	8.05305   	23.000000	4.55734   	23.000000	7.00331   	23.000000	6.61539   	23.000000	7.14982   	
24.000000	1203.36   	24.000000	1168.07   	24.000000	1192.68   	24.000000	1191.5    	24.000000	8.64298   	24.000000	4.8746    	24.000000	7.49467   	24.000000	7.05502   	24.000000	7.65355   	
25.000000	1289.48   	25.000000	1251.06   	25.000000	1277.02   	25.000000	1275.73   	25.000000	9.24975   	25.000000	5.19941   	25.000000	7.99955   	25.000000	7.50553   	25.000000	8.17129   	
27.000000	1469.36   	27.000000	1424.53   	27.000000	1452.85   	27.000000	1451.36   	27.000000	10.513    	27.000000	5.87115   	27.000000	9.04908   	27.000000	8.4385    	27.000000	9.24807   	
29.000000	1659.27   	29.000000	1607.89   	29.000000	1638.05   	29.000000	1636.38   	29.000000	11.8409   	29.000000	6.57144   	29.000000	10.1503   	29.000000	9.41284   	29.000000	10.3786   	
31.000000	1859.02   	31.000000	1800.99   	31.000000	1832.49   	31.000000	1830.69   	31.000000	13.2332   	31.000000	7.30011   	31.000000	11.3026   	31.000000	10.4278   	31.000000	11.5623   	
33.000000	2068.44   	33.000000	2003.71   	33.000000	2036.44   	33.000000	2034.56   	33.000000	14.6973   	33.000000	8.06051   	33.000000	12.5083   	33.000000	11.4855   	33.000000	12.8017   	
35.000000	2287.36   	35.000000	2215.91   	35.000000	2249.83   	35.000000	2247.92   	35.000000	16.2329   	35.000000	8.85262   	35.000000	13.7678   	35.000000	12.5859   	35.000000	14.0972   	
38.000000	2633.22   	38.000000	2551.72   	38.000000	2587.32   	38.000000	2585.43   	38.000000	18.6664   	38.000000	10.0984   	38.000000	15.7562   	38.000000	14.3154   	38.000000	16.1443   	
41.000000	2999.63   	41.000000	2908.2    	41.000000	2945.24   	41.000000	2943.51   	41.000000	21.2498   	41.000000	11.4097   	41.000000	17.8612   	41.000000	16.1374   	41.000000	18.3135   	
44.000000	3386.13   	44.000000	3284.96   	44.000000	3323.22   	44.000000	3321.73   	44.000000	23.9794   	44.000000	12.7854   	44.000000	20.0804   	44.000000	18.0499   	44.000000	20.6029   	
47.000000	3792.32   	47.000000	3681.63   	47.000000	3720.87   	47.000000	3719.7    	47.000000	26.8506   	47.000000	14.2221   	47.000000	22.4113   	47.000000	20.0508   	47.000000	23.01     	
50.000000	4217.79   	50.000000	4097.86   	50.000000	4137.83   	50.000000	4137.06   	50.000000	29.8594   	50.000000	15.718    	50.000000	24.8512   	50.000000	22.1378   	50.000000	25.5326   	
55.000000	4968.78   	55.000000	4834.14   	55.000000	4874.66   	55.000000	4874.78   	55.000000	35.1688   	55.000000	18.338    	55.000000	29.153    	55.000000	25.8017   	55.000000	29.9866   	
60.000000	5770.75   	60.000000	5622.34   	60.000000	5662.51   	60.000000	5663.89   	60.000000	40.8321   	60.000000	21.1102   	60.000000	33.7384   	60.000000	29.6891   	60.000000	34.7435   	
65.000000	6622.25   	65.000000	6461.06   	65.000000	6500.24   	65.000000	6502.99   	65.000000	46.8402   	65.000000	24.0287   	65.000000	38.5994   	65.000000	33.7934   	65.000000	39.7959   	
70.000000	7521.96   	70.000000	7348.98   	70.000000	7386.44   	70.000000	7390.8    	70.000000	53.1776   	70.000000	27.0883   	70.000000	43.7253   	70.000000	38.1063   	70.000000	45.1342   	
75.000000	8468.62   	75.000000	8284.85   	75.000000	8319.89   	75.000000	8326.11   	75.000000	59.8315   	75.000000	30.2826   	75.000000	49.107    	75.000000	42.6205   	75.000000	50.75     	
80.000000	9461.11   	80.000000	9267.48   	80.000000	9299.43   	80.000000	9307.78   	80.000000	66.7906   	80.000000	33.6084   	80.000000	54.7358   	80.000000	47.3294   	80.000000	56.6356   	
85.000000	10498.3   	85.000000	10295.7   	85.000000	10324     	85.000000	10334.7   	85.000000	74.0437   	85.000000	37.0589   	85.000000	60.6035   	85.000000	52.2269   	85.000000	62.7836   	
90.000000	11579.3   	90.000000	11368.5   	90.000000	11392.6   	90.000000	11405.9   	90.000000	81.5833   	90.000000	40.6318   	90.000000	66.7035   	90.000000	57.3077   	90.000000	69.188    	
95.000000	12703     	95.000000	12484.8   	95.000000	12504.4   	95.000000	12520.4   	95.000000	89.399    	95.000000	44.3233   	95.000000	73.0284   	95.000000	62.5665   	95.000000	75.8422   	
100.000000	13868.7   	100.000000	13643.6   	100.000000	13658.2   	100.000000	13677.2   	100.000000	97.4793   	100.000000	48.129    	100.000000	79.5703   	100.000000	67.9973   	100.000000	82.7391   	
105.000000	15075.3   	105.000000	14844     	105.000000	14853.1   	105.000000	14875.5   	105.000000	105.815   	105.000000	52.0457   	105.000000	86.3223   	105.000000	73.5953   	105.000000	89.8724   	
110.000000	16322.2   	110.000000	16085     	110.000000	16088.5   	110.000000	16114.3   	110.000000	114.4     	110.000000	56.0716   	110.000000	93.279    	110.000000	79.3562   	110.000000	97.2373   	
115.000000	17608.5   	115.000000	17365.8   	115.000000	17363.5   	115.000000	17392.9   	115.000000	123.228   	115.000000	60.2033   	115.000000	100.435   	115.000000	85.276    	115.000000	104.829   	
120.000000	18933.5   	120.000000	18685.5   	120.000000	18677.1   	120.000000	18710.4   	120.000000	132.286   	120.000000	64.4341   	120.000000	107.782   	120.000000	91.3496   	120.000000	112.64    	
125.000000	20296.6   	125.000000	20043.3   	125.000000	20028.7   	125.000000	20066.1   	125.000000	141.568   	125.000000	68.7647   	125.000000	115.316   	125.000000	97.5728   	125.000000	120.666   	
130.000000	21696.9   	130.000000	21438.5   	130.000000	21417.6   	130.000000	21459.2   	130.000000	151.068   	130.000000	73.1914   	130.000000	123.031   	130.000000	103.942   	130.000000	128.903   	
135.000000	23134     	135.000000	22870.1   	135.000000	22843     	135.000000	22889.1   	135.000000	160.781   	135.000000	77.7122   	135.000000	130.923   	135.000000	110.455   	135.000000	137.346   	
140.000000	24607.1   	140.000000	24337.6   	140.000000	24304.2   	140.000000	24354.9   	140.000000	170.695   	140.000000	82.3255   	140.000000	138.985   	140.000000	117.105   	140.000000	145.988   	
145.000000	26115.7   	145.000000	25840.2   	145.000000	25800.4   	145.000000	25856.1   	145.000000	180.805   	145.000000	87.0261   	145.000000	147.212   	145.000000	123.89    	145.000000	154.827   	
150.000000	27659.2   	150.000000	27377.1   	150.000000	27331.1   	150.000000	27392     	150.000000	191.107   	150.000000	91.8127   	150.000000	155.6     	150.000000	130.807   	150.000000	163.857   	
155.000000	29259.3   	155.000000	28947.8   	155.000000	28895.8   	155.000000	28961.8   	155.000000	201.594   	155.000000	96.6837   	155.000000	164.145   	155.000000	137.853   	155.000000	173.076   	
160.000000	30892.7   	160.000000	30551.6   	160.000000	30493.6   	160.000000	30565.1   	160.000000	212.259   	160.000000	101.636   	160.000000	172.842   	160.000000	145.023   	160.000000	182.478   	
165.000000	32557.9   	165.000000	32187.9   	165.000000	32124.1   	165.000000	32201.2   	165.000000	223.097   	165.000000	106.668   	165.000000	181.686   	165.000000	152.316   	165.000000	192.059   	
