*Energy (MeV/u)1	0 - [He-base] F.Hubert et al, AD&ND Tables 46(1990)1	Energy (MeV/u)2	1 - [H -base] J.F.Ziegler et al, Pergamon Press, NY (low energy)	Energy (MeV/u)3	2 - ATIMA 1.2  LS-theory (recommended for high energy)	Energy (MeV/u)4	3 - ATIMA 1.2  without LS-correction	Energy (MeV/u)5	4 - electrical component of [1] - J.F.Ziegler et al	Energy (MeV/u)6	5 - nuclear component of [1] - J.F.Ziegler et al	
0.001000	0.176874  	0.001000	0.0422532 	0.001000	0.0439382 	0.001000	0.0439382 	0.001000	0.0381822 	0.001000	0.00407107	
0.002000	0.215007  	0.002000	0.0560067 	0.002000	0.0583084 	0.002000	0.0583084 	0.002000	0.0521584 	0.002000	0.00384828	
0.005000	0.285694  	0.005000	0.081868  	0.005000	0.0853443 	0.005000	0.0853443 	0.005000	0.0787766 	0.005000	0.00309145	
0.008000	0.333338  	0.008000	0.0999216 	0.008000	0.104217  	0.008000	0.104217  	0.008000	0.097331  	0.008000	0.00259062	
0.010000	0.35911   	0.010000	0.109961  	0.010000	0.114709  	0.010000	0.114709  	0.010000	0.107612  	0.010000	0.00234861	
0.015000	0.433568  	0.015000	0.133027  	0.015000	0.136775  	0.015000	0.136775  	0.015000	0.131103  	0.015000	0.001924  	
0.020000	0.494488  	0.020000	0.152352  	0.020000	0.155134  	0.020000	0.155134  	0.020000	0.150707  	0.020000	0.00164519	
0.025000	0.54484   	0.025000	0.168486  	0.025000	0.171148  	0.025000	0.171148  	0.025000	0.16704   	0.025000	0.00144587	
0.030000	0.586196  	0.030000	0.181803  	0.030000	0.1842    	0.030000	0.1842    	0.030000	0.180508  	0.030000	0.00129514	
0.035000	0.619583  	0.035000	0.19264   	0.035000	0.194923  	0.035000	0.194923  	0.035000	0.191463  	0.035000	0.0011765 	
0.040000	0.645809  	0.040000	0.201324  	0.040000	0.203607  	0.040000	0.203607  	0.040000	0.200244  	0.040000	0.00108032	
0.045000	0.665597  	0.045000	0.208181  	0.045000	0.21053   	0.045000	0.21053   	0.045000	0.20718   	0.045000	0.00100051	
0.050000	0.679641  	0.050000	0.213513  	0.050000	0.215957  	0.050000	0.215957  	0.050000	0.21258   	0.050000	0.000933058	
0.055000	0.688625  	0.055000	0.217597  	0.055000	0.220134  	0.055000	0.220134  	0.055000	0.216722  	0.055000	0.00087519	
0.060000	0.69322   	0.060000	0.220673  	0.060000	0.22328   	0.060000	0.22328   	0.060000	0.219848  	0.060000	0.000824915	
0.070000	0.691812  	0.070000	0.224575  	0.070000	0.227216  	0.070000	0.227216  	0.070000	0.223833  	0.070000	0.000741655	
0.080000	0.680133  	0.080000	0.226428  	0.080000	0.228959  	0.080000	0.228959  	0.080000	0.225753  	0.080000	0.000675303	
0.090000	0.662066  	0.090000	0.226997  	0.090000	0.229308  	0.090000	0.229308  	0.090000	0.226381  	0.090000	0.000615296	
0.100000	0.640553  	0.100000	0.226761  	0.100000	0.228793  	0.100000	0.228793  	0.100000	0.226191  	0.100000	0.000570475	
0.120000	0.594759  	0.120000	0.224886  	0.120000	0.226318  	0.120000	0.226318  	0.120000	0.224387  	0.120000	0.00049949	
0.140000	0.551808  	0.140000	0.22199   	0.140000	0.222898  	0.140000	0.222898  	0.140000	0.221545  	0.140000	0.000445596	
0.160000	0.51452   	0.160000	0.218563  	0.160000	0.21907   	0.160000	0.21907   	0.160000	0.21816   	0.160000	0.000403131	
0.180000	0.483014  	0.180000	0.214843  	0.180000	0.215067  	0.180000	0.215067  	0.180000	0.214474  	0.180000	0.000368716	
0.200000	0.456505  	0.200000	0.210967  	0.200000	0.211     	0.200000	0.211     	0.200000	0.210627  	0.200000	0.000340198	
0.250000	0.406162  	0.250000	0.201104  	0.250000	0.200926  	0.250000	0.200926  	0.250000	0.200818  	0.250000	0.000286313	
0.300000	0.370265  	0.300000	0.191521  	0.300000	0.191325  	0.300000	0.191325  	0.300000	0.191272  	0.300000	0.000248232	
0.350000	0.342701  	0.350000	0.182522  	0.350000	0.182383  	0.350000	0.182383  	0.350000	0.182303  	0.350000	0.000219755	
0.400000	0.320349  	0.400000	0.174207  	0.400000	0.174145  	0.400000	0.174145  	0.400000	0.174009  	0.400000	0.00019758	
0.450000	0.301537  	0.450000	0.166576  	0.450000	0.166591  	0.450000	0.166591  	0.450000	0.166396  	0.450000	0.000179777	
0.500000	0.2853    	0.500000	0.159589  	0.500000	0.159674  	0.500000	0.159674  	0.500000	0.159424  	0.500000	0.000165141	
0.600000	0.258346  	0.600000	0.147324  	0.600000	0.147519  	0.600000	0.147519  	0.600000	0.147182  	0.600000	0.000142436	
0.700000	0.23662   	0.700000	0.136965  	0.700000	0.137234  	0.700000	0.137234  	0.700000	0.13684   	0.700000	0.000125581	
0.800000	0.2186    	0.800000	0.128125  	0.800000	0.128442  	0.800000	0.128442  	0.800000	0.128013  	0.800000	0.00011253	
0.900000	0.203353  	0.900000	0.1205    	0.900000	0.120845  	0.900000	0.120845  	0.900000	0.120398  	0.900000	0.000102102	
1.000000	0.190254  	1.000000	0.113856  	1.000000	0.114217  	1.000000	0.114217  	1.000000	0.113763  	1.000000	9.35627e-05	
1.250000	0.164292  	1.250000	0.100454  	1.250000	0.100823  	1.250000	0.100823  	1.250000	0.100376  	1.250000	7.76811e-05	
1.500000	0.14495   	1.500000	0.0902716 	1.500000	0.0906269 	1.500000	0.0906269 	1.500000	0.090205  	1.500000	6.66618e-05	
1.750000	0.129935  	1.750000	0.0822446 	1.750000	0.0825781 	1.750000	0.0825781 	1.750000	0.0821861 	1.750000	5.85356e-05	
2.000000	0.117915  	2.000000	0.0757328 	2.000000	0.0760425 	2.000000	0.0760425 	2.000000	0.0756805 	2.000000	5.22774e-05	
2.250000	0.108058  	2.250000	0.0703294 	2.250000	0.0706155 	2.250000	0.0706155 	2.250000	0.0702821 	2.250000	4.7299e-05	
2.500000	0.0993898 	2.500000	0.0657629 	2.500000	0.0660269 	2.500000	0.0660269 	2.500000	0.0657196 	2.500000	4.32374e-05	
3.000000	0.086785  	3.000000	0.0584413 	3.000000	0.0586662 	3.000000	0.0586662 	3.000000	0.0584043 	3.000000	3.6995e-05	
3.500000	0.0772187 	3.500000	0.0528031 	3.500000	0.0529954 	3.500000	0.0529954 	3.500000	0.0527707 	3.500000	3.24084e-05	
4.000000	0.0696895 	4.000000	0.0483074 	4.000000	0.0484727 	4.000000	0.0484727 	4.000000	0.0482785 	4.000000	2.88868e-05	
4.500000	0.0635969 	4.500000	0.044626  	4.500000	0.0447687 	4.500000	0.0447687 	4.500000	0.0446    	4.500000	2.60922e-05	
5.000000	0.0585574 	5.000000	0.0415475 	5.000000	0.0416712 	5.000000	0.0416712 	5.000000	0.0415237 	5.000000	2.38171e-05	
5.500000	0.0543144 	5.500000	0.038929  	5.500000	0.0390365 	5.500000	0.0390365 	5.500000	0.0389071 	5.500000	2.19268e-05	
6.000000	0.0506892 	6.000000	0.0366703 	6.000000	0.0367639 	6.000000	0.0367639 	6.000000	0.03665   	6.000000	2.03295e-05	
6.500000	0.0475534 	6.500000	0.0346989 	6.500000	0.0347806 	6.500000	0.0347806 	6.500000	0.03468   	6.500000	1.8961e-05	
7.000000	0.0448122 	7.000000	0.0329609 	7.000000	0.0330321 	7.000000	0.0330321 	7.000000	0.0329431 	7.000000	1.77745e-05	
7.500000	0.0423941 	7.500000	0.0314154 	7.500000	0.0314774 	7.500000	0.0314774 	7.500000	0.0313986 	7.500000	1.67354e-05	
8.000000	0.040244  	8.000000	0.0300306 	8.000000	0.0300845 	8.000000	0.0300845 	8.000000	0.0300148 	8.000000	1.58174e-05	
8.500000	0.0383188 	8.500000	0.0287816 	8.500000	0.0288284 	8.500000	0.0288284 	8.500000	0.0287666 	8.500000	1.50001e-05	
9.000000	0.0365843 	9.000000	0.0276485 	9.000000	0.0276889 	9.000000	0.0276889 	9.000000	0.0276342 	9.000000	1.42675e-05	
9.500000	0.035013  	9.500000	0.0266151 	9.500000	0.0266497 	9.500000	0.0266497 	9.500000	0.0266015 	9.500000	1.36068e-05	
10.000000	0.0335824 	10.000000	0.0258213 	10.000000	0.0256976 	10.000000	0.0256976 	10.000000	0.0258083 	10.000000	1.30078e-05	
11.000000	0.0310727 	11.000000	0.0241416 	11.000000	0.023998  	11.000000	0.0239983 	11.000000	0.0241296 	11.000000	1.19627e-05	
12.000000	0.0289413 	12.000000	0.0226776 	12.000000	0.0225322 	12.000000	0.0225328 	12.000000	0.0226665 	12.000000	1.10808e-05	
13.000000	0.0271072 	13.000000	0.021391  	13.000000	0.0212532 	13.000000	0.0212536 	13.000000	0.0213807 	13.000000	1.0326e-05	
14.000000	0.0255113 	14.000000	0.0202519 	14.000000	0.0201253 	14.000000	0.0201253 	14.000000	0.0202423 	14.000000	9.67241e-06	
15.000000	0.0241092 	15.000000	0.0192365 	15.000000	0.0191211 	15.000000	0.0191211 	15.000000	0.0192274 	15.000000	9.10053e-06	
16.000000	0.022867  	16.000000	0.0183256 	16.000000	0.0182208 	16.000000	0.0182205 	16.000000	0.018317  	16.000000	8.59571e-06	
17.000000	0.0217583 	17.000000	0.0175039 	17.000000	0.0174084 	17.000000	0.0174073 	17.000000	0.0174958 	17.000000	8.14663e-06	
18.000000	0.0207624 	18.000000	0.0167589 	18.000000	0.01667   	18.000000	0.0166685 	18.000000	0.0167512 	18.000000	7.7444e-06	
19.000000	0.0198626 	19.000000	0.0160803 	19.000000	0.0159953 	19.000000	0.0159938 	19.000000	0.0160729 	19.000000	7.38193e-06	
20.000000	0.0190453 	20.000000	0.0154595 	20.000000	0.0153761 	20.000000	0.0153746 	20.000000	0.0154524 	20.000000	7.0535e-06	
21.000000	0.0182995 	21.000000	0.0148894 	21.000000	0.0148056 	21.000000	0.014804  	21.000000	0.0148826 	21.000000	6.75447e-06	
22.000000	0.0176161 	22.000000	0.0143639 	22.000000	0.0142776 	22.000000	0.014276  	22.000000	0.0143574 	22.000000	6.48098e-06	
23.000000	0.0169873 	23.000000	0.013878  	23.000000	0.0137876 	23.000000	0.0137859 	23.000000	0.0138718 	23.000000	6.22985e-06	
24.000000	0.0164069 	24.000000	0.0134274 	24.000000	0.0133317 	24.000000	0.0133294 	24.000000	0.0134214 	24.000000	5.99839e-06	
25.000000	0.0158692 	25.000000	0.0130082 	25.000000	0.0129063 	25.000000	0.012903  	25.000000	0.0130024 	25.000000	5.78435e-06	
27.000000	0.0149042 	27.000000	0.0122518 	27.000000	0.0121329 	27.000000	0.0121287 	27.000000	0.0122464 	27.000000	5.40108e-06	
29.000000	0.0140626 	29.000000	0.0115878 	29.000000	0.0114473 	29.000000	0.0114432 	29.000000	0.0115828 	29.000000	5.06767e-06	
31.000000	0.0133215 	31.000000	0.0110001 	31.000000	0.0108581 	31.000000	0.010854  	31.000000	0.0109954 	31.000000	4.77484e-06	
33.000000	0.0126638 	33.000000	0.0104761 	33.000000	0.0103524 	33.000000	0.0103485 	33.000000	0.0104716 	33.000000	4.5155e-06	
35.000000	0.0120759 	35.000000	0.0100059 	35.000000	0.00989779	35.000000	0.00989432	35.000000	0.0100016 	35.000000	4.28413e-06	
38.000000	0.0113018 	38.000000	0.0093843 	38.000000	0.00929775	38.000000	0.00929307	38.000000	0.00938031	38.000000	3.98023e-06	
41.000000	0.0106332 	41.000000	0.00884522	41.000000	0.00877541	41.000000	0.00877058	41.000000	0.0088415 	41.000000	3.71839e-06	
44.000000	0.0100495 	44.000000	0.00837305	44.000000	0.00831641	44.000000	0.008312  	44.000000	0.00836956	44.000000	3.49031e-06	
47.000000	0.00953524	47.000000	0.00795593	47.000000	0.00791023	47.000000	0.00790605	47.000000	0.00795264	47.000000	3.28978e-06	
50.000000	0.00907844	50.000000	0.00758465	50.000000	0.00754791	50.000000	0.00754399	50.000000	0.00758154	50.000000	3.11202e-06	
55.000000	0.00842045	55.000000	0.0070487 	55.000000	0.00702361	55.000000	0.00701999	55.000000	0.00704584	55.000000	2.85659e-06	
60.000000	0.0078649 	60.000000	0.00659528	60.000000	0.0065789 	60.000000	0.00657532	60.000000	0.00659264	60.000000	2.64154e-06	
65.000000	0.00738916	65.000000	0.0062065 	65.000000	0.00619717	65.000000	0.00619294	65.000000	0.00620404	65.000000	2.45787e-06	
70.000000	0.00697688	70.000000	0.00586932	70.000000	0.00586427	70.000000	0.00586042	70.000000	0.00586702	70.000000	2.2991e-06	
75.000000	0.0066159 	75.000000	0.00557399	75.000000	0.00557209	75.000000	0.00556846	75.000000	0.00557183	75.000000	2.16041e-06	
80.000000	0.00629703	80.000000	0.0053131 	80.000000	0.00531338	80.000000	0.00530995	80.000000	0.00531106	80.000000	2.03818e-06	
85.000000	0.00601314	85.000000	0.0050809 	85.000000	0.00508262	85.000000	0.00507938	85.000000	0.00507897	85.000000	1.9296e-06	
90.000000	0.00575866	90.000000	0.00487286	90.000000	0.0048755 	90.000000	0.00487238	90.000000	0.00487102	90.000000	1.83247e-06	
95.000000	0.00552915	95.000000	0.00468535	95.000000	0.00468919	95.000000	0.00468549	95.000000	0.00468361	95.000000	1.74505e-06	
100.000000	0.00532102	100.000000	0.00451545	100.000000	0.0045194 	100.000000	0.00451586	100.000000	0.00451379	100.000000	1.66593e-06	
105.000000	0.00513135	105.000000	0.00436077	105.000000	0.00436457	105.000000	0.00436119	105.000000	0.00435918	105.000000	1.59397e-06	
110.000000	0.00495773	110.000000	0.00421934	110.000000	0.00422281	110.000000	0.00421955	110.000000	0.00421781	110.000000	1.52822e-06	
115.000000	0.00479815	115.000000	0.0040895 	115.000000	0.0040925 	115.000000	0.00408936	115.000000	0.00408803	115.000000	1.46791e-06	
120.000000	0.00465095	120.000000	0.00396988	120.000000	0.00397229	120.000000	0.00396927	120.000000	0.00396847	120.000000	1.41237e-06	
125.000000	0.0045147 	125.000000	0.0038593 	125.000000	0.00386106	125.000000	0.00385813	125.000000	0.00385794	125.000000	1.36105e-06	
130.000000	0.00438819	130.000000	0.00375678	130.000000	0.00375781	130.000000	0.00375497	130.000000	0.00375547	130.000000	1.31349e-06	
135.000000	0.00427038	135.000000	0.00366145	135.000000	0.00366165	135.000000	0.00365896	135.000000	0.00366018	135.000000	1.26928e-06	
140.000000	0.00416039	140.000000	0.00357258	140.000000	0.00357226	140.000000	0.00356937	140.000000	0.00357135	140.000000	1.22806e-06	
145.000000	0.00405744	145.000000	0.00348953	145.000000	0.00348873	145.000000	0.00348558	145.000000	0.00348834	145.000000	1.18956e-06	
150.000000	0.00396086	150.000000	0.00341174	150.000000	0.00341009	150.000000	0.00340705	150.000000	0.00341059	150.000000	1.15349e-06	
155.000000	0.00382488	155.000000	0.00333873	155.000000	0.00333621	155.000000	0.00333328	155.000000	0.00333761	155.000000	1.11963e-06	
160.000000	0.00374517	160.000000	0.00327007	160.000000	0.00326674	160.000000	0.00326386	160.000000	0.00326898	160.000000	1.08779e-06	
165.000000	0.00367001	165.000000	0.00320537	165.000000	0.00320122	165.000000	0.00319841	165.000000	0.00320431	165.000000	1.05779e-06	
170.000000	0.003599  	170.000000	0.00314431	170.000000	0.00313935	170.000000	0.0031366 	170.000000	0.00314328	170.000000	1.02946e-06	
175.000000	0.00353182	175.000000	0.00308658	175.000000	0.00308082	175.000000	0.00307814	175.000000	0.00308558	175.000000	1.00267e-06	
180.000000	0.00346815	180.000000	0.00303192	180.000000	0.00302538	180.000000	0.00302276	180.000000	0.00303094	180.000000	9.77302e-07	
185.000000	0.00340773	185.000000	0.00298009	185.000000	0.0029728 	185.000000	0.00297022	185.000000	0.00297914	185.000000	9.53237e-07	
190.000000	0.0033503 	190.000000	0.00293087	190.000000	0.00292285	190.000000	0.00292032	190.000000	0.00292994	190.000000	9.30378e-07	
195.000000	0.00329565	195.000000	0.00288408	195.000000	0.00287531	195.000000	0.00287285	195.000000	0.00288317	195.000000	9.08635e-07	
200.000000	0.00324358	200.000000	0.00283953	200.000000	0.00283004	200.000000	0.00282766	200.000000	0.00283864	200.000000	8.87926e-07	
210.000000	0.00314646	210.000000	0.00275656	210.000000	0.0027461 	210.000000	0.00274344	210.000000	0.00275571	210.000000	8.49329e-07	
220.000000	0.00305771	220.000000	0.00268086	220.000000	0.00266922	220.000000	0.00266657	220.000000	0.00268005	220.000000	8.14076e-07	
230.000000	0.00297626	230.000000	0.00261152	230.000000	0.00259869	230.000000	0.00259613	230.000000	0.00261074	230.000000	7.81746e-07	
240.000000	0.00290126	240.000000	0.00254778	240.000000	0.00253385	240.000000	0.00253137	240.000000	0.00254703	240.000000	7.51986e-07	
250.000000	0.00283196	250.000000	0.00248898	250.000000	0.00247403	250.000000	0.00247162	250.000000	0.00248826	250.000000	7.24496e-07	
260.000000	0.00276773	260.000000	0.00243458	260.000000	0.00241868	260.000000	0.00241633	260.000000	0.00243388	260.000000	6.99023e-07	
270.000000	0.00270803	270.000000	0.00238411	270.000000	0.00236732	270.000000	0.00236503	270.000000	0.00238343	270.000000	6.7535e-07	
280.000000	0.00265241	280.000000	0.00233715	280.000000	0.00231955	280.000000	0.00231732	280.000000	0.0023365 	280.000000	6.5329e-07	
290.000000	0.00260045	290.000000	0.00229337	290.000000	0.00227497	290.000000	0.00227282	290.000000	0.00229274	290.000000	6.32682e-07	
300.000000	0.00255181	300.000000	0.00225245	300.000000	0.0022335 	300.000000	0.00223125	300.000000	0.00225183	300.000000	6.13384e-07	
310.000000	0.00250619	310.000000	0.00221412	310.000000	0.00219472	310.000000	0.00219232	310.000000	0.00221352	310.000000	5.95275e-07	
320.000000	0.00246331	320.000000	0.00217815	320.000000	0.00215809	320.000000	0.00215574	320.000000	0.00217757	320.000000	5.78246e-07	
330.000000	0.00242293	330.000000	0.00214434	330.000000	0.00212364	330.000000	0.00212135	330.000000	0.00214378	330.000000	5.62202e-07	
340.000000	0.00238485	340.000000	0.00211249	340.000000	0.00209123	340.000000	0.00208898	340.000000	0.00211195	340.000000	5.47059e-07	
350.000000	0.00234887	350.000000	0.00208245	350.000000	0.00206066	350.000000	0.00205845	350.000000	0.00208192	350.000000	5.32742e-07	
360.000000	0.00231483	360.000000	0.00205408	360.000000	0.00203179	360.000000	0.00202962	360.000000	0.00205356	360.000000	5.19185e-07	
370.000000	0.00228259	370.000000	0.00202723	370.000000	0.00200449	370.000000	0.00200236	370.000000	0.00202672	370.000000	5.06327e-07	
380.000000	0.00225199	380.000000	0.0020018 	380.000000	0.00197864	380.000000	0.00197654	380.000000	0.0020013 	380.000000	4.94116e-07	
390.000000	0.00222294	390.000000	0.00197767	390.000000	0.00195413	390.000000	0.00195206	390.000000	0.00197719	390.000000	4.82502e-07	
400.000000	0.0021953 	400.000000	0.00195476	400.000000	0.00193087	400.000000	0.00192883	400.000000	0.00195429	400.000000	4.71444e-07	
410.000000	0.002169  	410.000000	0.00193297	410.000000	0.00190876	410.000000	0.00190674	410.000000	0.00193251	410.000000	4.609e-07 	
420.000000	0.00214392	420.000000	0.00191224	420.000000	0.00188773	420.000000	0.00188574	420.000000	0.00191179	420.000000	4.50836e-07	
430.000000	0.00212001	430.000000	0.00189248	430.000000	0.0018677 	430.000000	0.00186573	430.000000	0.00189204	430.000000	4.41219e-07	
440.000000	0.00209717	440.000000	0.00187364	440.000000	0.00184858	440.000000	0.00184666	440.000000	0.00187321	440.000000	4.3202e-07	
450.000000	0.00207534	450.000000	0.00185565	450.000000	0.00183036	450.000000	0.00182847	450.000000	0.00185523	450.000000	4.23212e-07	
460.000000	0.00205445	460.000000	0.00183847	460.000000	0.00181304	460.000000	0.0018111 	460.000000	0.00183805	460.000000	4.14769e-07	
470.000000	0.00203446	470.000000	0.00182203	470.000000	0.00179653	470.000000	0.00179449	470.000000	0.00182163	470.000000	4.0667e-07	
480.000000	0.00201531	480.000000	0.00180631	480.000000	0.0017807 	480.000000	0.00177861	480.000000	0.00180591	480.000000	3.98893e-07	
490.000000	0.00199694	490.000000	0.00179124	490.000000	0.00176548	490.000000	0.0017634 	490.000000	0.00179085	490.000000	3.9142e-07	
500.000000	0.00197932	500.000000	0.0017768 	500.000000	0.00175088	500.000000	0.00174884	500.000000	0.00177642	500.000000	3.84232e-07	
520.000000	0.00194614	520.000000	0.00174966	520.000000	0.00172347	520.000000	0.00172148	520.000000	0.00174929	520.000000	3.7065e-07	
540.000000	0.00191547	540.000000	0.00172462	540.000000	0.00169824	540.000000	0.00169628	540.000000	0.00172426	540.000000	3.58031e-07	
560.000000	0.00188707	560.000000	0.00170147	560.000000	0.00167492	560.000000	0.001673  	560.000000	0.00170113	560.000000	3.46274e-07	
580.000000	0.0018607 	580.000000	0.00168002	580.000000	0.00165334	580.000000	0.00165145	580.000000	0.00167969	580.000000	3.35293e-07	
600.000000	0.00183617	600.000000	0.0016601 	600.000000	0.00163332	600.000000	0.00163146	600.000000	0.00165978	600.000000	3.25012e-07	
620.000000	0.00181332	620.000000	0.00164157	620.000000	0.00161472	620.000000	0.00161289	620.000000	0.00164126	620.000000	3.15367e-07	
640.000000	0.00179199	640.000000	0.00162431	640.000000	0.0015974 	640.000000	0.00159559	640.000000	0.001624  	640.000000	3.06298e-07	
660.000000	0.00177206	660.000000	0.00160819	660.000000	0.00158124	660.000000	0.00157945	660.000000	0.00160789	660.000000	2.97756e-07	
680.000000	0.0017534 	680.000000	0.00159312	680.000000	0.00156612	680.000000	0.00156438	680.000000	0.00159284	680.000000	2.89695e-07	
700.000000	0.00173592	700.000000	0.00157902	700.000000	0.00155204	700.000000	0.00155029	700.000000	0.00157874	700.000000	2.82074e-07	
720.000000	0.00171952	720.000000	0.00156581	720.000000	0.00153891	720.000000	0.00153708	720.000000	0.00156553	720.000000	2.74859e-07	
