*Energy (MeV/u)1	0 - [He-base] F.Hubert et al, AD&ND Tables 46(1990)1	Energy (MeV/u)2	1 - [H -base] J.F.Ziegler et al, Pergamon Press, NY (low energy)	Energy (MeV/u)3	2 - ATIMA 1.2  LS-theory (recommended for high energy)	Energy (MeV/u)4	3 - ATIMA 1.2  without LS-correction	Energy (MeV/u)5	4 - electrical component of [1] - J.F.Ziegler et al	Energy (MeV/u)6	5 - nuclear component of [1] - J.F.Ziegler et al	
0.001000	0.238503  	0.001000	0.0600733 	0.001000	0.0617527 	0.001000	0.0617527 	0.001000	0.0380467 	0.001000	0.0220266 	
0.002000	0.31134   	0.002000	0.0858077 	0.002000	0.0887135 	0.002000	0.0887135 	0.002000	0.0658402 	0.002000	0.0199674 	
0.005000	0.48741   	0.005000	0.144113  	0.005000	0.149805  	0.005000	0.149805  	0.005000	0.128976  	0.005000	0.0151367 	
0.008000	0.618205  	0.008000	0.189002  	0.008000	0.196798  	0.008000	0.196798  	0.008000	0.176658  	0.008000	0.012344  	
0.010000	0.689852  	0.010000	0.214556  	0.010000	0.223536  	0.010000	0.223536  	0.010000	0.203496  	0.010000	0.0110594 	
0.015000	0.880841  	0.015000	0.272959  	0.015000	0.280509  	0.015000	0.280509  	0.015000	0.264073  	0.015000	0.00888562	
0.020000	1.0405    	0.020000	0.322849  	0.020000	0.328672  	0.020000	0.328672  	0.020000	0.315343  	0.020000	0.00750609	
0.025000	1.17658   	0.025000	0.365809  	0.025000	0.371534  	0.025000	0.371534  	0.025000	0.359268  	0.025000	0.00654052	
0.030000	1.29323   	0.030000	0.402812  	0.030000	0.408082  	0.030000	0.408082  	0.030000	0.396991  	0.030000	0.00582102	
0.035000	1.39291   	0.035000	0.434626  	0.035000	0.439746  	0.035000	0.439746  	0.035000	0.429365  	0.035000	0.00526099	
0.040000	1.47735   	0.040000	0.461944  	0.040000	0.467154  	0.040000	0.467154  	0.040000	0.457133  	0.040000	0.00481084	
0.045000	1.54792   	0.045000	0.485416  	0.045000	0.49087   	0.045000	0.49087   	0.045000	0.480976  	0.045000	0.00443998	
0.050000	1.60585   	0.050000	0.505649  	0.050000	0.511415  	0.050000	0.511415  	0.050000	0.501521  	0.050000	0.00412838	
0.055000	1.65234   	0.055000	0.523186  	0.055000	0.529265  	0.055000	0.529265  	0.055000	0.519324  	0.055000	0.00386238	
0.060000	1.68856   	0.060000	0.53847   	0.060000	0.544812  	0.060000	0.544812  	0.060000	0.534872  	0.060000	0.00359795	
0.070000	1.73489   	0.070000	0.563992  	0.070000	0.570609  	0.070000	0.570609  	0.070000	0.560768  	0.070000	0.00322365	
0.080000	1.75384   	0.080000	0.584589  	0.080000	0.591109  	0.080000	0.591109  	0.080000	0.581662  	0.080000	0.00292657	
0.090000	1.75339   	0.090000	0.601796  	0.090000	0.607914  	0.090000	0.607914  	0.090000	0.599112  	0.090000	0.00268441	
0.100000	1.74007   	0.100000	0.616547  	0.100000	0.622061  	0.100000	0.622061  	0.100000	0.614064  	0.100000	0.00248281	
0.120000	1.69329   	0.120000	0.64068   	0.120000	0.644754  	0.120000	0.644754  	0.120000	0.638515  	0.120000	0.00216538	
0.140000	1.63805   	0.140000	0.659314  	0.140000	0.662007  	0.140000	0.662007  	0.140000	0.657388  	0.140000	0.00192589	
0.160000	1.58477   	0.160000	0.673466  	0.160000	0.675028  	0.160000	0.675028  	0.160000	0.671728  	0.160000	0.00173809	
0.180000	1.53676   	0.180000	0.683767  	0.180000	0.684478  	0.180000	0.684478  	0.180000	0.682181  	0.180000	0.00158648	
0.200000	1.49425   	0.200000	0.690735  	0.200000	0.690844  	0.200000	0.690844  	0.200000	0.689274  	0.200000	0.00146125	
0.250000	1.40651   	0.250000	0.696553  	0.250000	0.695935  	0.250000	0.695935  	0.250000	0.695327  	0.250000	0.00122562	
0.300000	1.33485   	0.300000	0.690588  	0.300000	0.689883  	0.300000	0.689883  	0.300000	0.689528  	0.300000	0.0010599 	
0.350000	1.27168   	0.350000	0.67744   	0.350000	0.676922  	0.350000	0.676922  	0.350000	0.676503  	0.350000	0.000936422	
0.400000	1.21382   	0.400000	0.66025   	0.400000	0.660014  	0.400000	0.660014  	0.400000	0.659409  	0.400000	0.000840545	
0.450000	1.16008   	0.450000	0.641064  	0.450000	0.641123  	0.450000	0.641123  	0.450000	0.6403    	0.450000	0.000763754	
0.500000	1.11002   	0.500000	0.621167  	0.500000	0.6215    	0.500000	0.6215    	0.500000	0.620467  	0.500000	0.000700746	
0.600000	1.02006   	0.600000	0.582055  	0.600000	0.582825  	0.600000	0.582825  	0.600000	0.581451  	0.600000	0.00060323	
0.700000	0.942388  	0.700000	0.54595   	0.700000	0.547022  	0.700000	0.547022  	0.700000	0.545419  	0.700000	0.000531023	
0.800000	0.875332  	0.800000	0.513597  	0.800000	0.514865  	0.800000	0.514865  	0.800000	0.513122  	0.800000	0.000475233	
0.900000	0.817206  	0.900000	0.484879  	0.900000	0.486267  	0.900000	0.486267  	0.900000	0.484448  	0.900000	0.000430731	
1.000000	0.766504  	1.000000	0.459401  	1.000000	0.460859  	1.000000	0.460859  	1.000000	0.459007  	1.000000	0.000394341	
1.250000	0.664477  	1.250000	0.407073  	1.250000	0.408569  	1.250000	0.408569  	1.250000	0.406746  	1.250000	0.000326797	
1.500000	0.587437  	1.500000	0.366656  	1.500000	0.368099  	1.500000	0.368099  	1.500000	0.366376  	1.500000	0.000280041	
1.750000	0.5271    	1.750000	0.334425  	1.750000	0.335781  	1.750000	0.335781  	1.750000	0.33418   	1.750000	0.000245623	
2.000000	0.478471  	2.000000	0.308044  	2.000000	0.309304  	2.000000	0.309304  	2.000000	0.307825  	2.000000	0.000219155	
2.250000	0.438391  	2.250000	0.286001  	2.250000	0.287165  	2.250000	0.287165  	2.250000	0.285803  	2.250000	0.000198125	
2.500000	0.397981  	2.500000	0.267276  	2.500000	0.268349  	2.500000	0.268349  	2.500000	0.267095  	2.500000	0.000180986	
3.000000	0.347377  	3.000000	0.237111  	3.000000	0.238023  	3.000000	0.238023  	3.000000	0.236956  	3.000000	0.000154677	
3.500000	0.309018  	3.500000	0.213816  	3.500000	0.214595  	3.500000	0.214595  	3.500000	0.213681  	3.500000	0.000135374	
4.000000	0.278849  	4.000000	0.195244  	4.000000	0.195912  	4.000000	0.195912  	4.000000	0.195123  	4.000000	0.00012057	
4.500000	0.254448  	4.500000	0.180063  	4.500000	0.180638  	4.500000	0.180638  	4.500000	0.179954  	4.500000	0.000108833	
5.000000	0.234271  	5.000000	0.167399  	5.000000	0.167898  	5.000000	0.167898  	5.000000	0.1673    	5.000000	9.92867e-05	
5.500000	0.217287  	5.500000	0.156659  	5.500000	0.157092  	5.500000	0.157092  	5.500000	0.156568  	5.500000	9.13599e-05	
6.000000	0.202778  	6.000000	0.147421  	6.000000	0.147797  	6.000000	0.147797  	6.000000	0.147336  	6.000000	8.46665e-05	
6.500000	0.190229  	6.500000	0.139379  	6.500000	0.139707  	6.500000	0.139707  	6.500000	0.1393    	6.500000	7.89348e-05	
7.000000	0.179261  	7.000000	0.132307  	7.000000	0.132593  	7.000000	0.132593  	7.000000	0.132233  	7.000000	7.39682e-05	
7.500000	0.169585  	7.500000	0.126031  	7.500000	0.12628   	7.500000	0.12628   	7.500000	0.125962  	7.500000	6.96205e-05	
8.000000	0.160983  	8.000000	0.12042   	8.000000	0.120636  	8.000000	0.120636  	8.000000	0.120354  	8.000000	6.57809e-05	
8.500000	0.153281  	8.500000	0.115367  	8.500000	0.115554  	8.500000	0.115554  	8.500000	0.115304  	8.500000	6.23639e-05	
9.000000	0.146342  	9.000000	0.110789  	9.000000	0.110951  	9.000000	0.110951  	9.000000	0.11073   	9.000000	5.93021e-05	
9.500000	0.140056  	9.500000	0.10662   	9.500000	0.106758  	9.500000	0.106758  	9.500000	0.106563  	9.500000	5.6542e-05	
10.000000	0.134332  	10.000000	0.103417  	10.000000	0.102922  	10.000000	0.102922  	10.000000	0.103363  	10.000000	5.40402e-05	
11.000000	0.124293  	11.000000	0.0966566 	11.000000	0.0960968 	11.000000	0.0961044 	11.000000	0.0966069 	11.000000	4.96771e-05	
12.000000	0.115766  	12.000000	0.0907732 	12.000000	0.0902172 	12.000000	0.0902299 	12.000000	0.0907272 	12.000000	4.59973e-05	
13.000000	0.10843   	13.000000	0.0856088 	13.000000	0.0850923 	13.000000	0.0851065 	13.000000	0.0855659 	13.000000	4.28496e-05	
14.000000	0.102046  	14.000000	0.08104   	14.000000	0.0805759 	14.000000	0.0805893 	14.000000	0.0809998 	14.000000	4.01247e-05	
15.000000	0.0964373 	15.000000	0.0769695 	15.000000	0.0765571 	15.000000	0.0765704 	15.000000	0.0769317 	15.000000	3.77415e-05	
16.000000	0.0914683 	16.000000	0.0733199 	16.000000	0.0729535 	16.000000	0.0729663 	16.000000	0.0732843 	16.000000	3.56385e-05	
17.000000	0.0870336 	17.000000	0.0700289 	17.000000	0.0697008 	17.000000	0.069712  	17.000000	0.0699951 	17.000000	3.37683e-05	
18.000000	0.0830499 	18.000000	0.0670458 	18.000000	0.0667472 	18.000000	0.0667557 	18.000000	0.0670137 	18.000000	3.20938e-05	
19.000000	0.0794505 	19.000000	0.064329  	19.000000	0.0640495 	19.000000	0.0640558 	19.000000	0.0642985 	19.000000	3.05851e-05	
20.000000	0.0761814 	20.000000	0.0618442 	20.000000	0.0615718 	20.000000	0.061578  	20.000000	0.0618149 	20.000000	2.92185e-05	
21.000000	0.0731983 	21.000000	0.0595624 	21.000000	0.0592876 	21.000000	0.0592944 	21.000000	0.0595345 	21.000000	2.79746e-05	
22.000000	0.0704645 	22.000000	0.0574597 	22.000000	0.0571765 	22.000000	0.0571816 	22.000000	0.0574328 	22.000000	2.68371e-05	
23.000000	0.0679494 	23.000000	0.0555154 	23.000000	0.0552184 	23.000000	0.0552199 	23.000000	0.0554896 	23.000000	2.57929e-05	
24.000000	0.0656275 	24.000000	0.0537122 	24.000000	0.0533948 	24.000000	0.0533928 	24.000000	0.0536874 	24.000000	2.48307e-05	
25.000000	0.0634767 	25.000000	0.0520351 	25.000000	0.0516913 	25.000000	0.051686  	25.000000	0.0520111 	25.000000	2.3941e-05	
27.000000	0.059617  	27.000000	0.0490089 	27.000000	0.0485997 	27.000000	0.0485863 	27.000000	0.0489866 	27.000000	2.23484e-05	
29.000000	0.0562503 	29.000000	0.0463527 	29.000000	0.0458583 	29.000000	0.0458417 	29.000000	0.0463317 	29.000000	2.09635e-05	
31.000000	0.0532862 	31.000000	0.0440016 	31.000000	0.0434967 	31.000000	0.0434792 	31.000000	0.0439818 	31.000000	1.97474e-05	
33.000000	0.0506553 	33.000000	0.0419054 	33.000000	0.0414726 	33.000000	0.0414497 	33.000000	0.0418867 	33.000000	1.86708e-05	
35.000000	0.0483035 	35.000000	0.0400243 	35.000000	0.0396486 	35.000000	0.0396268 	35.000000	0.0400066 	35.000000	1.77105e-05	
38.000000	0.0452074 	38.000000	0.0375378 	38.000000	0.0372395 	38.000000	0.0372142 	38.000000	0.0375214 	38.000000	1.64496e-05	
41.000000	0.042533  	41.000000	0.0353814 	41.000000	0.0351441 	41.000000	0.0351183 	41.000000	0.0353661 	41.000000	1.53636e-05	
44.000000	0.0401982 	44.000000	0.0334927 	44.000000	0.033302  	44.000000	0.0332792 	44.000000	0.0334783 	44.000000	1.44179e-05	
47.000000	0.038141  	47.000000	0.0318242 	47.000000	0.0316775 	47.000000	0.0316515 	47.000000	0.0318106 	47.000000	1.35866e-05	
50.000000	0.0363137 	50.000000	0.030339  	50.000000	0.0302263 	50.000000	0.0302    	50.000000	0.0303262 	50.000000	1.28499e-05	
55.000000	0.0336818 	55.000000	0.0281952 	55.000000	0.0281284 	55.000000	0.0280998 	55.000000	0.0281834 	55.000000	1.17916e-05	
60.000000	0.0314596 	60.000000	0.0263815 	60.000000	0.0263442 	60.000000	0.026318  	60.000000	0.0263706 	60.000000	1.0901e-05	
65.000000	0.0295567 	65.000000	0.0248263 	65.000000	0.0248129 	65.000000	0.024786  	65.000000	0.0248162 	65.000000	1.01406e-05	
70.000000	0.0279075 	70.000000	0.0234776 	70.000000	0.0234813 	70.000000	0.0234539 	70.000000	0.0234681 	70.000000	9.4834e-06	
75.000000	0.0264636 	75.000000	0.0222962 	75.000000	0.0223097 	75.000000	0.0222845 	75.000000	0.0222873 	75.000000	8.90952e-06	
80.000000	0.0251881 	80.000000	0.0212527 	80.000000	0.0212765 	80.000000	0.0212491 	80.000000	0.0212443 	80.000000	8.40385e-06	
85.000000	0.0240526 	85.000000	0.0203238 	85.000000	0.0203518 	85.000000	0.0203258 	85.000000	0.0203159 	85.000000	7.95475e-06	
90.000000	0.0230346 	90.000000	0.0194917 	90.000000	0.0195218 	90.000000	0.0194969 	90.000000	0.0194841 	90.000000	7.55311e-06	
95.000000	0.0221166 	95.000000	0.0187416 	95.000000	0.0187752 	95.000000	0.0187486 	95.000000	0.0187344 	95.000000	7.19168e-06	
100.000000	0.0212841 	100.000000	0.018062  	100.000000	0.0180949 	100.000000	0.0180694 	100.000000	0.0180551 	100.000000	6.86463e-06	
105.000000	0.0205254 	105.000000	0.0174433 	105.000000	0.0174746 	105.000000	0.0174502 	105.000000	0.0174367 	105.000000	6.56722e-06	
110.000000	0.0198309 	110.000000	0.0168775 	110.000000	0.0169064 	110.000000	0.0168832 	110.000000	0.0168712 	110.000000	6.29554e-06	
115.000000	0.0191926 	115.000000	0.0163582 	115.000000	0.016386  	115.000000	0.016362  	115.000000	0.0163521 	115.000000	6.04634e-06	
120.000000	0.0186038 	120.000000	0.0158797 	120.000000	0.0159058 	120.000000	0.0158812 	120.000000	0.0158739 	120.000000	5.8169e-06	
125.000000	0.0180588 	125.000000	0.0154374 	125.000000	0.0154596 	125.000000	0.0154363 	125.000000	0.0154318 	125.000000	5.60494e-06	
130.000000	0.0175527 	130.000000	0.0150273 	130.000000	0.015046  	130.000000	0.0150234 	130.000000	0.0150219 	130.000000	5.40851e-06	
135.000000	0.0170815 	135.000000	0.014646  	135.000000	0.0146627 	135.000000	0.0146391 	135.000000	0.0146407 	135.000000	5.22592e-06	
140.000000	0.0166416 	140.000000	0.0142905 	140.000000	0.0143042 	140.000000	0.0142806 	140.000000	0.0142854 	140.000000	5.05576e-06	
145.000000	0.0162298 	145.000000	0.0139583 	145.000000	0.013968  	145.000000	0.0139452 	145.000000	0.0139534 	145.000000	4.89678e-06	
150.000000	0.0158434 	150.000000	0.0136471 	150.000000	0.0136531 	150.000000	0.0136309 	150.000000	0.0136424 	150.000000	4.74789e-06	
155.000000	0.0152995 	155.000000	0.0133551 	155.000000	0.0133571 	155.000000	0.0133356 	155.000000	0.0133504 	155.000000	4.60815e-06	
160.000000	0.0149807 	160.000000	0.0130804 	160.000000	0.0130791 	160.000000	0.0130578 	160.000000	0.0130759 	160.000000	4.47673e-06	
165.000000	0.01468   	165.000000	0.0128216 	165.000000	0.0128179 	165.000000	0.0127959 	165.000000	0.0128173 	165.000000	4.3529e-06	
170.000000	0.014396  	170.000000	0.0125774 	170.000000	0.0125707 	170.000000	0.0125485 	170.000000	0.0125731 	170.000000	4.23602e-06	
175.000000	0.0141273 	175.000000	0.0123464 	175.000000	0.012336  	175.000000	0.0123145 	175.000000	0.0123423 	175.000000	4.12549e-06	
180.000000	0.0138726 	180.000000	0.0121278 	180.000000	0.0121139 	180.000000	0.0120929 	180.000000	0.0121238 	180.000000	4.02082e-06	
185.000000	0.0136309 	185.000000	0.0119205 	185.000000	0.0119032 	185.000000	0.0118827 	185.000000	0.0119165 	185.000000	3.92155e-06	
190.000000	0.0134012 	190.000000	0.0117236 	190.000000	0.011703  	190.000000	0.011683  	190.000000	0.0117198 	190.000000	3.82725e-06	
195.000000	0.0131826 	195.000000	0.0115364 	195.000000	0.0115131 	195.000000	0.011493  	195.000000	0.0115327 	195.000000	3.73757e-06	
200.000000	0.0129743 	200.000000	0.0113582 	200.000000	0.0113329 	200.000000	0.0113122 	200.000000	0.0113546 	200.000000	3.65216e-06	
210.000000	0.0125859 	210.000000	0.0110263 	210.000000	0.0109955 	210.000000	0.0109751 	210.000000	0.0110228 	210.000000	3.49298e-06	
220.000000	0.0122308 	220.000000	0.0107235 	220.000000	0.0106872 	220.000000	0.0106676 	220.000000	0.0107202 	220.000000	3.34763e-06	
230.000000	0.0119051 	230.000000	0.0104462 	230.000000	0.0104046 	230.000000	0.0103857 	230.000000	0.010443  	230.000000	3.21434e-06	
240.000000	0.011605  	240.000000	0.0101912 	240.000000	0.0101459 	240.000000	0.0101266 	240.000000	0.0101881 	240.000000	3.09165e-06	
250.000000	0.0113278 	250.000000	0.00995601	250.000000	0.00990688	250.000000	0.00988747	250.000000	0.00995303	250.000000	2.97835e-06	
260.000000	0.0110709 	260.000000	0.00973841	260.000000	0.00968501	260.000000	0.00966626	260.000000	0.00973554	260.000000	2.87336e-06	
270.000000	0.0108321 	270.000000	0.00953651	270.000000	0.00947926	270.000000	0.009461  	270.000000	0.00953373	270.000000	2.77581e-06	
280.000000	0.0106096 	280.000000	0.00934869	280.000000	0.00928789	280.000000	0.00927008	280.000000	0.00934601	280.000000	2.68491e-06	
290.000000	0.0104018 	290.000000	0.00917355	290.000000	0.00911039	290.000000	0.00909206	290.000000	0.00917095	290.000000	2.6e-06   	
300.000000	0.0102073 	300.000000	0.00900985	300.000000	0.0089441 	300.000000	0.0089257 	300.000000	0.00900733	300.000000	2.52051e-06	
310.000000	0.0100248 	310.000000	0.00885654	310.000000	0.00878783	310.000000	0.00876995	310.000000	0.0088541 	310.000000	2.44591e-06	
320.000000	0.00985322	320.000000	0.00871267	320.000000	0.00864113	320.000000	0.00862358	320.000000	0.0087103 	320.000000	2.37577e-06	
330.000000	0.00969171	330.000000	0.00857741	330.000000	0.0085031 	330.000000	0.008486  	330.000000	0.0085751 	330.000000	2.30969e-06	
340.000000	0.00953938	340.000000	0.00845003	340.000000	0.00837341	340.000000	0.00835648	340.000000	0.00844778	340.000000	2.24733e-06	
350.000000	0.00939548	350.000000	0.00832988	350.000000	0.0082517 	350.000000	0.00823434	350.000000	0.00832769	350.000000	2.18837e-06	
360.000000	0.00925933	360.000000	0.00821636	360.000000	0.00813648	360.000000	0.00811899	360.000000	0.00821423	360.000000	2.13255e-06	
370.000000	0.00913034	370.000000	0.00810897	370.000000	0.00802704	370.000000	0.00800991	370.000000	0.00810689	370.000000	2.07961e-06	
380.000000	0.00900798	380.000000	0.00800724	380.000000	0.00792344	380.000000	0.00790662	380.000000	0.00800521	380.000000	2.02933e-06	
390.000000	0.00889175	390.000000	0.00791074	390.000000	0.00782527	390.000000	0.00780869	390.000000	0.00790875	390.000000	1.98152e-06	
400.000000	0.00878122	400.000000	0.00781909	400.000000	0.00773197	400.000000	0.00771572	400.000000	0.00781715	400.000000	1.936e-06 	
410.000000	0.00867599	410.000000	0.00773195	410.000000	0.00764346	410.000000	0.00762738	410.000000	0.00773006	410.000000	1.8926e-06	
420.000000	0.0085757 	420.000000	0.00764901	420.000000	0.00755966	420.000000	0.00754333	420.000000	0.00764716	420.000000	1.85118e-06	
430.000000	0.00848002	430.000000	0.00756998	430.000000	0.00747991	430.000000	0.0074633 	430.000000	0.00756817	430.000000	1.8116e-06	
440.000000	0.00838866	440.000000	0.00749461	440.000000	0.00740355	440.000000	0.007387  	440.000000	0.00749284	440.000000	1.77374e-06	
450.000000	0.00830134	450.000000	0.00742266	450.000000	0.00733049	450.000000	0.00731422	450.000000	0.00742093	450.000000	1.73749e-06	
460.000000	0.00821781	460.000000	0.00735392	460.000000	0.00726075	460.000000	0.00724471	460.000000	0.00735222	460.000000	1.70275e-06	
470.000000	0.00813784	470.000000	0.00728818	470.000000	0.00719416	470.000000	0.00717827	470.000000	0.00728651	470.000000	1.66943e-06	
480.000000	0.00806122	480.000000	0.00722526	480.000000	0.00713041	480.000000	0.00711473	480.000000	0.00722363	480.000000	1.63743e-06	
490.000000	0.00798775	490.000000	0.007165  	490.000000	0.00706934	490.000000	0.0070539 	490.000000	0.0071634 	490.000000	1.60668e-06	
500.000000	0.00791726	500.000000	0.00710724	500.000000	0.00701097	500.000000	0.00699563	500.000000	0.00710567	500.000000	1.57711e-06	
520.000000	0.00778455	520.000000	0.00699867	520.000000	0.0069019 	520.000000	0.0068862 	520.000000	0.00699715	520.000000	1.52124e-06	
540.000000	0.00766189	540.000000	0.00689852	540.000000	0.00680111	540.000000	0.00678536	540.000000	0.00689706	540.000000	1.46933e-06	
560.000000	0.00754827	560.000000	0.00680593	560.000000	0.00670761	560.000000	0.00669224	560.000000	0.00680451	560.000000	1.42097e-06	
580.000000	0.00744279	580.000000	0.00672012	580.000000	0.00662117	580.000000	0.00660603	580.000000	0.00671875	580.000000	1.37581e-06	
600.000000	0.00734469	600.000000	0.00664045	600.000000	0.00654089	600.000000	0.00652606	600.000000	0.00663912	600.000000	1.33353e-06	
620.000000	0.00725328	620.000000	0.00656633	620.000000	0.00646639	620.000000	0.00645174	620.000000	0.00656504	620.000000	1.29387e-06	
640.000000	0.00716797	640.000000	0.00649726	640.000000	0.00639744	640.000000	0.00638253	640.000000	0.006496  	640.000000	1.25658e-06	
660.000000	0.00708823	660.000000	0.00643279	660.000000	0.00633309	660.000000	0.00631799	660.000000	0.00643157	660.000000	1.22146e-06	
680.000000	0.00701361	680.000000	0.00637253	680.000000	0.00627264	680.000000	0.0062577 	680.000000	0.00637134	680.000000	1.18832e-06	
700.000000	0.00694367	700.000000	0.00631612	700.000000	0.00621599	700.000000	0.0062013 	700.000000	0.00631497	700.000000	1.157e-06 	
720.000000	0.00687806	720.000000	0.00626326	720.000000	0.006163  	720.000000	0.00614847	720.000000	0.00626213	720.000000	1.12734e-06	
